93
92
94
95
94
94
94
95
95
95
94
94
93
95
93
95
95
94
95
96
95
95
95
96
96
95
96
95
98
97
94
96
93
96
96
95
94
96
96
94
97
94
95
93
94
94
93
93
93
93
92
92
92
94
93
93
93
94
94
93
93
94
94
95
96
95
98
100
98
98
100
97
99
101
100
98
102
101
102
101
102
104
103
101
101
102
103
103
103
103
102
104
103
105
104
102
102
102
102
100
101
99
100
97
100
96
98
97
98
94
97
95
96
95
96
96
96
95
96
96
94
94
94
95
93
93
93
92
94
92
93
91
92
91
91
91
91
90
86
95
90
91
92
91
83
101
93
94
93
94
94
95
94
86
101
93
94
94
92
91
92
96
88
93
69
114
91
114
82
84
81
83
81
82
80
84
81
80
85
84
83
84
84
86
88
88
90
88
90
90
89
91
59
123
91
92
88
92
88
86
86
85
85
81
91
85
84
86
83
82
76
89
58
107
77
78
78
78
78
77
78
79
77
78
79
78
79
80
78
79
80
80
81
81
80
82
82
82
67
99
79
82
81
82
82
80
82
82
82
82
80
81
81
82
81
80
81
82
81
81
80
80
80
81
78
80
81
79
81
80
78
82
81
77
63
104
82
68
99
82
85
82
91
77
84
87
84
84
81
79
79
80
79
80
77
83
80
100
88
81
84
55
162
88
87
87
86
87
81
82
84
107
152
81
83
83
82
81
78
80
76
73
76
75
76
74
77
73
86
84
85
87
84
83
86
85
85
84
84
84
85
86
86
87
87
86
87
87
87
86
88
87
90
86
88
87
88
88
86
88
88
87
89
91
90
90
90
92
92
91
92
92
92
90
91
91
92
90
90
91
90
90
89
88
90
88
88
87
88
88
87
88
88
88
88
89
87
88
88
88
87
86
87
87
85
86
86
86
85
86
87
86
86
88
85
87
86
86
87
88
87
88
86
88
83
81
80
81
84
77
80
80
76
84
80
80
80
80
80
79
161
77
80
90
79
79
78
79
78
80
79
79
81
79
80
81
80
81
80
82
83
81
83
81
81
81
83
82
82
81
81
83
82
91
73
83
68
98
83
83
82
84
82
82
83
82
83
83
83
82
84
84
83
64
100
83
82
83
84
77
88
83
82
84
82
82
82
81
83
81
83
81
82
81
82
82
81
82
79
82
80
81
81
84
80
81
82
83
81
82
83
81
82
82
81
82
82
81
80
85
81
82
82
83
81
82
81
83
83
80
82
81
81
81
82
81
79
80
80
81
81
80
82
81
82
83
83
86
86
84
86
86
88
86
87
89
89
87
88
91
89
90
87
87
89
88
88
88
89
87
89
87
89
89
89
90
88
87
89
87
88
88
87
88
84
88
86
87
86
86
86
87
70
104
68
106
61
113
63
107
65
105
83
83
84
82
83
82
77
77
76
82
74
75
77
76
77
76
75
75
78
75
79
76
78
77
78
77
81
74
78
77
85
74
79
78
81
86
75
81
80
77
80
81
79
77
81
80
79
80
81
80
81
81
81
84
84
80
82
82
83
82
84
84
88
79
86
84
88
85
90
82
85
87
85
83
82
83
84
82
80
83
83
82
81
82
82
81
82
81
80
81
81
80
81
81
80
80
64
94
79
79
79
77
80
79
79
80
81
78
81
80
82
80
82
78
84
81
83
81
84
82
84
85
84
85
85
86
85
86
70
104
84
87
88
86
87
88
84
80
79
77
80
78
81
54
103
79
80
80
160
82
83
84
82
84
82
84
86
68
103
85
86
85
87
85
86
86
88
91
88
88
89
90
91
72
106
78
100
86
88
86
88
87
86
86
86
85
88
86
86
85
87
86
83
90
84
86
87
88
86
86
87
88
87
86
87
87
88
87
79
56
107
92
90
89
87
89
88
88
87
87
88
88
87
88
87
91
90
84
100
89
92
92
92
91
91
93
91
92
90
93
93
91
92
92
92
92
92
92
92
85
97
90
91
83
101
89
91
89
92
90
88
88
89
88
90
88
88
89
90
89
88
89
88
89
89
89
122
87
87
85
90
90
87
88
89
88
89
89
89
89
91
91
91
91
93
92
94
93
93
83
103
92
93
94
93
95
95
94
95
95
95
94
94
95
94
94
95
94
94
93
93
92
90
92
89
90
90
91
90
91
90
90
91
90
89
90
89
89
89
90
90
89
88
90
87
88
88
89
89
87
88
89
86
83
83
83
81
83
83
84
84
84
84
80
87
91
77
81
86
85
83
85
84
83
82
86
82
83
83
83
84
84
82
83
83
83
84
83
84
84
83
85
85
83
84
86
85
85
86
85
86
87
86
89
87
89
88
89
84
92
87
87
92
88
89
88
88
89
87
89
88
88
88
89
89
88
89
89
89
88
89
88
88
89
88
88
88
87
89
88
88
89
89
88
87
89
86
89
89
88
89
88
91
87
89
88
89
89
87
86
89
87
78
98
86
91
88
88
90
87
90
89
88
87
89
89
90
89
88
89
88
89
90
89
89
91
92
94
94
92
94
93
95
93
92
92
92
93
91
89
92
92
90
90
89
90
91
88
92
88
90
91
90
89
90
68
115
89
91
72
109
87
89
88
89
87
90
89
88
90
90
89
89
90
89
89
90
89
89
90
89
88
89
89
87
89
88
89
88
88
87
91
90
89
90
90
92
90
90
88
90
90
88
88
88
88
89
87
89
88
88
87
90
87
89
88
87
87
88
88
87
86
88
86
87
88
88
87
88
88
89
89
90
90
90
91
90
90
91
91
89
90
85
93
92
88
92
89
90
89
91
93
89
91
90
90
87
92
89
90
89
88
89
88
87
89
88
88
89
88
91
92
89
91
92
93
92
91
91
90
91
90
90
88
92
90
89
90
89
91
88
90
88
90
89
89
89
88
90
88
89
87
89
89
88
89
87
91
90
88
89
91
88
89
89
88
90
89
89
89
88
89
88
89
88
89
87
88
91
90
93
90
91
93
91
91
91
88
89
66
112
90
90
87
90
88
86
87
88
87
87
85
86
86
86
85
86
85
85
87
84
85
86
84
88
85
86
83
85
85
84
85
83
87
83
84
85
83
86
84
83
86
85
84
85
85
85
86
84
86
86
89
89
88
88
90
91
89
89
89
89
90
89
87
91
90
91
88
89
90
92
90
91
90
92
92
91
88
92
66
104
93
91
91
90
92
93
92
91
92
92
94
94
93
93
94
95
97
89
100
94
94
90
96
93
93
92
94
95
94
94
94
94
95
94
94
91
95
92
94
92
92
93
95
93
93
93
94
93
93
91
89
92
90
88
89
88
87
87
87
88
90
69
77
77
78
78
78
79
79
79
80
83
83
83
85
85
86
87
85
88
88
88
90
91
89
89
91
92
92
92
93
92
91
93
92
94
94
94
94
95
96
95
95
94
95
95
93
93
94
93
92
93
92
92
92
91
91
89
89
90
87
88
89
85
89
87
88
82
96
89
90
74
105
90
90
91
92
92
93
93
96
94
95
95
96
97
97
97
97
98
99
97
97
99
100
101
99
99
101
102
100
100
102
102
100
101
100
60
140
63
137
98
96
94
92
95
94
93
94
94
94
94
96
94
93
95
94
94
93
94
93
94
93
95
93
89
97
92
97
94
79
106
63
125
95
93
93
95
95
95
73
121
62
130
60
134
96
96
94
97
95
97
97
97
96
98
97
98
97
98
99
98
98
98
101
100
98
100
98
98
98
99
100
99
100
100
100
99
93
101
97
96
96
95
97
97
97
97
97
68
128
77
118
61
131
95
95
93
95
96
96
95
97
77
117
61
79
150
80
111
96
94
95
94
95
94
96
95
95
97
96
96
97
97
97
99
97
97
98
97
99
96
99
96
97
96
95
94
95
95
95
96
94
97
96
96
98
96
98
95
98
97
98
98
98
99
99
94
103
97
99
97
98
97
97
97
96
96
97
98
98
97
98
98
101
93
97
97
97
96
96
98
98
98
99
99
101
98
100
101
100
102
101
102
102
102
102
105
104
93
113
82
124
65
137
88
113
99
87
115
98
100
100
100
101
100
92
113
100
102
103
101
101
101
100
101
101
101
101
101
57
147
100
75
127
99
99
99
99
98
95
99
96
97
96
98
98
98
99
98
99
99
101
99
98
99
100
99
98
100
98
98
98
93
101
57
135
92
96
95
94
95
95
96
96
75
116
95
95
95
95
94
96
95
95
69
122
92
99
62
126
93
94
93
93
93
94
93
93
95
94
95
94
96
96
97
96
96
99
96
99
99
97
97
97
96
96
95
96
98
98
101
102
101
103
100
102
103
103
103
106
104
102
100
98
98
98
98
97
98
64
137
95
104
96
75
120
95
96
96
95
76
117
96
98
97
96
97
96
97
90
103
95
97
97
95
97
94
98
97
97
97
97
98
97
99
98
99
100
98
100
100
100
100
100
100
103
102
101
101
101
103
104
103
105
103
104
105
106
105
104
105
102
107
104
104
104
106
106
104
105
104
104
102
103
104
104
103
103
103
103
103
101
102
101
101
101
101
101
100
101
100
100
57
145
99
99
99
99
97
94
105
98
99
99
99
98
100
98
58
142
100
80
119
91
57
147
98
99
96
97
99
98
98
99
99
100
99
99
99
101
101
103
100
102
102
103
103
101
102
102
102
102
101
101
103
103
102
102
103
103
101
101
101
100
100
100
100
99
102
99
99
99
99
98
97
99
97
98
97
98
98
98
99
99
98
100
99
99
99
100
100
99
101
102
100
102
103
106
106
104
106
107
108
108
108
108
109
108
109
111
110
112
110
76
145
112
109
109
111
110
110
108
106
106
106
104
106
104
105
106
105
104
105
104
103
102
104
103
104
104
101
103
103
102
102
102
103
103
103
103
103
105
104
101
103
103
107
108
108
110
110
110
108
108
108
109
107
108
107
107
109
109
107
108
108
110
108
109
109
109
109
110
110
107
108
108
103
103
104
103
102
104
101
102
101
101
102
99
99
100
101
101
100
100
100
100
100
101
98
101
101
100
100
99
101
99
100
101
103
102
105
102
104
104
103
104
106
105
61
150
106
104
104
63
146
106
103
104
104
105
103
104
103
105
104
104
105
104
104
105
83
122
102
99
99
100
101
101
73
129
101
101
100
101
101
100
99
100
102
102
103
102
102
102
101
101
101
104
103
104
103
104
104
104
102
102
103
105
104
103
59
146
101
99
99
101
100
102
102
101
100
99
101
98
98
99
99
103
102
104
103
103
103
102
101
99
100
95
97
99
99
101
102
102
104
102
103
104
104
107
62
151
106
93
116
102
102
101
101
94
109
102
103
102
98
105
101
101
100
101
99
92
108
98
99
99
100
101
99
100
101
101
101
100
102
103
102
101
104
104
103
104
103
103
103
103
101
104
103
103
75
133
104
104
103
104
104
104
105
106
105
105
105
106
106
106
104
105
106
107
105
107
106
105
104
103
58
151
105
103
104
104
103
103
103
105
104
105
105
105
105
105
106
86
124
104
109
106
106
105
107
106
107
108
107
106
107
107
107
109
108
110
109
109
109
108
109
90
128
92
123
108
106
107
74
79
162
107
80
133
65
146
106
105
103
101
109
106
108
108
84
108
107
107
107
107
108
107
105
108
106
105
105
106
106
74
135
67
142
102
101
102
102
104
104
105
105
105
107
106
111
107
108
109
108
107
107
108
109
108
107
108
109
110
108
108
108
108
106
106
107
107
105
104
107
106
105
106
106
106
105
105
104
106
105
103
106
104
104
103
105
104
104
104
105
105
103
105
104
103
103
103
102
102
102
102
101
103
103
103
103
104
103
104
105
103
104
103
105
104
104
103
74
119
122
104
103
105
103
103
104
104
103
103
103
105
103
104
103
104
104
103
105
105
104
103
104
104
102
105
102
104
102
103
104
103
103
103
104
104
103
62
148
104
79
127
101
101
100
100
101
99
100
78
123
67
136
102
101
101
101
102
81
124
102
78
127
66
91
148
102
101
101
81
122
102
79
127
104
78
130
103
102
103
103
103
103
104
104
105
106
77
136
107
106
105
104
104
104
104
66
142
104
103
104
105
106
105
104
103
107
105
105
105
105
106
105
105
104
104
106
103
102
102
102
102
101
61
103
106
105
109
109
108
108
109
109
109
108
108
110
107
109
106
107
106
106
105
105
105
105
104
103
104
103
103
103
101
102
101
100
101
100
100
98
100
99
99
98
101
100
100
101
101
102
101
101
104
104
103
103
106
104
105
104
106
107
106
107
106
106
107
107
107
106
108
104
106
106
105
104
105
107
104
106
106
107
106
106
107
105
107
108
106
106
106
103
105
107
105
105
105
105
104
104
105
104
105
103
105
104
102
104
103
102
104
104
103
104
104
104
104
105
103
104
102
105
103
105
106
104
106
106
107
108
106
108
108
109
109
108
109
107
109
106
105
105
105
105
104
106
104
104
106
103
105
104
104
103
104
103
104
104
99
108
103
103
103
103
104
103
102
103
103
103
101
103
103
103
103
105
104
103
104
104
104
104
105
102
103
102
97
105
100
100
101
103
102
103
104
105
106
106
107
107
108
105
106
105
108
106
106
108
106
109
105
107
107
108
107
107
105
105
104
108
106
106
108
105
107
103
104
102
104
106
106
104
106
106
107
107
107
108
107
109
106
107
108
107
106
107
108
107
108
91
124
106
106
105
103
104
104
103
103
103
101
102
100
97
100
107
99
104
102
101
102
102
104
102
103
103
103
101
101
102
104
105
104
105
108
105
105
108
108
106
107
107
107
105
105
105
107
106
106
105
105
105
106
106
104
105
104
107
106
106
106
106
105
105
105
106
107
106
105
105
106
106
104
105
106
106
106
104
104
106
105
105
104
105
106
105
105
105
104
105
102
104
102
103
104
102
103
104
104
104
105
106
104
107
105
106
106
106
106
107
107
108
109
110
112
109
110
110
109
110
107
109
109
110
110
110
108
105
106
82
129
104
102
101
104
104
100
98
98
98
97
98
97
100
100
100
102
102
103
101
102
100
99
99
100
100
102
102
103
102
103
104
103
104
104
106
103
105
104
105
105
105
104
105
104
104
104
103
103
104
103
102
102
103
101
102
102
100
99
100
100
99
97
99
98
98
97
98
98
97
99
99
98
98
100
99
100
99
100
101
100
101
101
102
102
101
98
107
102
102
82
124
83
124
66
143
102
101
103
102
102
103
102
104
103
104
103
104
104
104
104
104
104
102
76
129
103
102
102
89
116
100
102
101
102
102
101
102
102
104
101
75
132
103
102
103
100
104
63
144
103
102
103
104
103
104
104
104
104
104
103
103
105
105
108
60
159
111
111
109
110
109
108
110
106
106
106
90
122
105
107
104
105
106
106
105
105
105
105
106
106
107
106
107
107
108
110
107
108
109
109
108
106
108
108
108
107
106
106
107
107
104
105
106
106
105
105
107
106
105
106
107
108
108
108
107
106
107
107
107
106
105
104
105
106
106
106
106
108
109
109
108
108
109
108
108
108
107
109
108
106
107
108
105
106
104
106
104
105
104
105
104
104
103
104
104
104
105
106
106
108
108
107
107
108
108
109
109
109
107
108
110
111
110
109
108
108
68
149
109
109
108
108
107
109
108
107
106
106
78
135
107
106
104
105
105
106
104
107
103
110
106
105
105
106
108
109
94
123
108
76
137
104
89
118
105
102
102
103
104
103
103
104
104
105
104
105
106
106
107
107
106
109
108
109
108
109
108
107
110
107
107
107
105
108
105
106
103
103
105
103
103
104
102
102
102
101
102
103
101
103
102
103
105
102
104
62
107
106
106
107
107
106
106
107
106
105
105
106
104
105
105
104
105
105
104
102
104
103
101
103
101
102
100
101
99
101
100
101
101
102
101
102
103
102
102
103
102
103
102
102
101
102
100
100
99
101
99
100
101
101
100
101
101
100
101
101
100
99
99
100
101
100
100
103
102
101
103
102
103
103
103
102
102
101
101
102
62
140
101
101
100
102
102
101
101
103
101
102
102
105
104
106
104
105
94
118
105
105
104
106
106
107
105
65
153
111
108
110
108
107
109
107
107
106
104
106
104
103
103
102
103
100
102
103
102
101
102
102
100
101
99
99
99
99
99
99
95
99
96
97
96
96
97
96
99
88
113
101
103
103
104
103
106
105
105
106
106
106
104
104
104
106
103
102
104
103
103
104
104
105
105
105
105
104
102
104
104
102
106
104
107
105
107
105
108
108
105
108
107
105
105
106
106
105
104
106
102
101
101
99
100
99
100
101
99
103
102
90
103
102
93
110
65
141
104
104
105
104
104
104
103
102
105
107
105
107
110
110
108
111
110
110
109
110
111
110
110
110
111
109
110
109
110
110
111
107
109
111
108
107
108
108
105
105
106
105
107
105
107
107
106
107
107
110
107
107
106
107
105
108
105
107
106
106
61
153
108
107
105
105
104
105
103
105
106
106
107
107
106
109
108
108
108
108
107
81
131
105
102
103
101
103
104
105
107
107
106
107
109
108
107
109
109
111
111
109
110
110
110
111
81
126
113
111
109
110
109
108
108
107
105
106
103
105
103
104
104
103
102
104
102
102
101
102
102
99
99
98
98
96
98
97
98
98
99
99
98
99
99
98
100
101
99
101
100
102
102
102
103
102
105
103
104
103
105
105
104
107
104
105
106
105
103
106
106
106
106
106
104
103
105
102
104
104
104
106
104
106
106
106
105
105
107
105
104
107
105
108
106
106
106
106
104
105
105
103
106
103
104
103
106
104
106
104
106
105
104
104
104
105
104
104
105
105
106
105
105
107
104
105
107
105
104
105
105
106
104
90
119
104
102
104
102
103
102
104
104
103
103
103
104
102
102
102
103
103
103
103
103
104
102
103
103
101
101
102
101
102
102
107
104
104
105
106
106
105
105
106
108
107
106
104
104
99
111
104
108
101
104
103
103
104
104
59
150
103
83
124
100
102
101
101
101
101
99
103
100
101
102
101
102
102
102
103
102
90
116
102
103
102
103
102
105
104
103
105
103
103
101
103
82
102
103
102
104
103
90
116
102
104
101
102
102
104
104
103
105
106
106
106
106
108
107
109
108
110
109
108
107
108
107
108
105
106
106
105
104
104
104
103
102
101
102
101
99
98
99
97
98
95
102
98
98
99
98
99
100
100
99
100
101
101
100
101
101
102
101
102
72
135
103
103
105
105
104
105
105
91
122
66
147
106
104
105
105
106
105
107
107
107
107
107
108
107
107
106
107
107
107
106
106
107
103
104
103
104
104
103
105
104
104
103
68
140
66
141
103
100
101
100
81
123
66
138
101
100
102
100
101
100
101
103
102
102
104
106
104
105
109
106
108
107
109
108
108
109
106
108
108
107
107
107
108
107
107
107
107
108
107
106
108
108
110
106
107
108
109
108
108
108
108
106
107
106
107
109
108
107
109
111
111
109
108
108
110
107
106
104
107
107
104
107
107
106
106
105
106
105
108
106
105
107
108
108
107
108
109
109
108
109
109
110
107
107
107
107
108
108
108
109
109
110
108
109
108
111
107
107
107
107
106
103
104
104
103
103
103
103
103
101
103
102
103
101
102
101
101
102
101
102
101
101
101
101
100
100
77
125
65
136
100
99
98
99
99
99
98
97
99
99
99
99
101
101
102
101
102
103
103
103
105
103
104
104
105
103
104
104
104
104
103
104
103
104
105
103
104
102
103
103
104
103
103
104
103
102
104
102
103
102
102
103
101
102
102
102
103
102
102
102
101
100
103
103
101
101
101
101
102
100
102
102
104
104
103
105
104
105
105
105
105
107
105
105
106
106
107
105
107
107
107
104
107
107
108
106
106
107
107
106
106
107
106
103
104
106
104
104
105
104
107
107
104
105
86
122
107
105
107
104
107
106
106
106
106
105
106
104
105
107
106
106
106
108
108
107
107
109
110
110
108
111
109
109
110
109
108
109
107
109
110
108
107
106
65
154
110
92
127
109
110
108
106
107
107
109
108
108
107
105
108
110
108
109
110
112
113
110
110
110
108
110
109
109
111
112
111
109
111
112
111
110
111
110
111
109
109
109
108
108
107
107
109
107
108
106
109
107
108
108
108
105
106
107
103
106
107
108
106
108
108
110
109
107
106
108
107
106
104
105
105
106
105
105
104
105
103
105
103
103
103
100
103
100
100
101
101
100
101
99
101
100
100
100
101
99
100
99
99
100
99
100
99
100
99
100
100
101
101
101
101
103
103
103
104
60
151
107
105
105
107
105
107
106
105
106
85
89
124
103
84
128
105
76
139
106
78
134
106
106
104
104
105
105
105
105
105
105
105
106
104
105
106
106
104
105
107
104
105
106
103
105
104
61
151
104
105
103
103
102
103
102
102
102
103
103
104
104
102
104
105
103
102
103
103
104
104
103
104
106
108
106
108
108
110
109
107
109
108
108
107
106
108
108
105
105
107
106
105
106
107
106
105
106
105
106
103
105
104
103
103
103
104
105
104
104
106
105
105
103
103
104
104
105
102
104
104
104
106
105
105
105
107
103
105
106
106
104
105
106
106
104
106
105
107
105
106
105
106
105
106
105
103
106
106
104
105
104
105
104
105
104
103
105
104
102
102
103
104
104
103
104
104
106
103
107
105
107
107
106
109
109
109
109
110
109
108
107
108
109
108
111
109
109
109
112
110
108
109
108
109
106
107
106
106
106
104
105
104
104
105
104
104
104
103
103
104
102
104
103
105
103
104
105
105
103
104
104
105
103
104
104
104
103
101
104
103
104
103
103
104
103
103
104
104
103
103
102
102
102
102
102
102
102
101
100
99
101
99
100
99
97
106
102
102
102
103
67
143
105
105
103
102
104
103
103
103
102
101
102
101
103
105
103
103
104
105
106
106
82
131
108
106
104
106
105
107
105
105
109
107
109
110
107
109
110
107
109
109
109
107
106
106
106
108
109
111
110
109
110
110
109
109
108
110
109
108
110
108
104
114
108
64
152
106
107
106
106
104
103
91
116
105
104
104
76
101
142
108
107
105
105
105
104
104
103
104
102
104
105
104
104
106
106
105
107
108
108
108
107
109
109
107
108
108
106
107
107
108
106
108
109
108
107
108
110
108
107
107
110
109
107
108
107
108
106
105
105
106
105
104
106
104
105
104
106
104
106
105
106
105
106
106
105
106
106
107
106
107
110
107
109
108
107
109
110
111
110
110
109
110
111
110
110
109
110
108
109
112
110
110
110
111
110
109
110
111
108
109
111
109
110
109
109
108
109
108
107
107
109
107
109
110
110
108
111
110
111
110
110
107
108
111
110
110
109
109
109
110
109
110
111
109
110
90
131
108
110
109
109
107
109
108
107
107
107
106
91
122
106
106
103
103
103
103
106
103
104
106
107
106
106
108
107
109
109
110
109
110
111
110
111
112
113
111
112
112
113
112
111
109
112
110
110
61
159
109
87
130
107
108
105
107
106
107
106
93
118
106
105
104
105
106
105
90
122
105
108
104
105
106
104
105
107
105
106
107
106
107
106
106
107
108
108
107
108
110
108
108
108
109
108
109
108
111
110
108
110
111
110
111
111
111
107
110
110
107
108
108
109
107
107
108
107
108
107
107
107
107
105
107
106
106
106
106
106
106
105
107
106
105
106
106
106
105
106
106
106
106
104
106
106
106
105
105
106
106
107
106
105
106
105
106
105
105
107
107
105
107
106
107
105
107
106
105
106
106
61
151
107
106
104
104
105
103
105
105
106
105
105
106
105
104
105
105
107
104
106
69
142
106
105
103
104
102
102
102
104
103
103
104
105
105
103
105
105
105
104
105
106
105
106
104
107
105
105
106
106
106
106
106
107
107
106
107
106
106
106
59
154
66
152
107
109
108
107
108
108
109
106
109
108
109
107
109
107
107
109
104
107
107
108
108
107
90
128
108
107
108
108
107
106
107
108
108
108
107
109
108
107
109
108
108
107
109
106
109
108
110
107
107
62
156
99
119
70
148
107
108
108
107
106
108
106
108
108
107
108
109
107
109
109
108
109
107
109
109
107
108
109
108
107
107
108
107
105
107
106
107
109
108
107
107
107
106
107
105
106
107
106
107
108
107
108
109
110
108
109
109
109
107
109
110
110
108
110
110
110
108
108
109
109
108
107
107
106
110
108
109
109
108
109
109
110
108
110
109
111
108
110
110
111
110
111
110
110
110
112
111
110
111
112
111
111
111
111
112
108
111
110
109
108
108
109
108
106
108
107
108
106
108
106
107
106
106
107
106
107
105
106
106
107
105
105
106
107
104
106
106
105
106
107
107
107
105
106
108
107
107
107
107
107
107
105
107
108
108
108
107
108
108
108
107
106
106
93
121
72
144
109
107
108
108
107
110
92
127
69
147
108
106
106
107
108
106
106
107
108
106
107
107
107
109
107
107
106
108
105
106
105
106
106
104
105
104
104
102
103
103
102
102
101
102
101
101
101
102
101
102
101
102
101
102
100
101
101
100
101
103
101
102
103
102
102
104
105
102
104
104
105
105
104
105
106
107
104
106
106
106
104
106
106
105
106
106
106
105
105
106
107
104
106
106
106
104
105
105
105
104
104
106
105
105
105
107
105
106
107
108
107
106
108
108
108
107
108
108
107
106
109
108
110
107
109
109
110
109
109
110
111
109
109
60
161
112
110
111
111
111
109
83
137
111
108
110
109
110
108
109
108
110
108
108
106
108
110
106
108
107
107
90
124
107
107
107
104
106
102
110
77
137
107
74
68
148
105
105
105
103
106
104
106
104
107
110
109
109
112
113
114
115
112
116
115
113
112
112
109
112
111
111
113
112
114
111
112
112
114
111
112
114
113
113
111
113
113
114
112
113
112
112
109
110
110
110
110
108
111
111
109
108
109
109
109
110
108
109
108
95
122
107
106
107
82
129
105
107
104
104
104
105
105
104
105
107
105
106
107
106
107
106
107
105
106
105
104
105
105
104
104
104
103
103
105
103
104
105
104
105
104
104
104
104
103
103
102
102
102
102
102
102
102
104
103
103
103
104
102
103
103
103
103
103
104
102
103
103
102
103
103
103
102
101
101
102
101
101
103
102
104
106
105
105
106
107
107
105
107
106
106
106
108
106
105
107
107
108
105
108
108
108
108
108
107
109
107
108
108
100
114
107
109
107
105
107
106
106
106
106
105
106
106
104
105
106
105
105
106
106
105
108
107
107
106
108
108
107
107
107
105
106
91
122
68
145
106
104
91
118
103
103
103
102
101
103
100
102
102
103
101
103
103
104
103
101
102
102
101
101
102
102
102
102
102
104
102
105
104
105
105
104
106
105
107
105
106
107
105
104
106
106
106
107
106
107
108
108
109
107
109
108
108
107
108
108
106
107
107
108
107
106
106
61
156
107
87
128
106
105
105
105
105
106
104
106
106
78
135
105
111
107
109
106
99
81
142
107
105
107
106
107
105
108
107
109
64
154
109
108
108
108
108
109
111
108
110
109
109
109
107
108
107
105
106
105
105
105
104
93
118
105
104
105
104
105
104
105
104
105
104
104
104
106
105
103
92
120
104
105
105
105
105
106
106
107
106
107
106
107
107
109
108
109
110
110
111
110
112
114
111
111
112
112
113
112
111
109
107
108
107
107
106
107
107
109
108
107
108
108
109
107
107
108
107
108
107
105
107
106
108
105
107
108
106
106
105
106
105
105
106
106
106
106
108
106
108
106
107
106
106
107
107
106
106
60
155
109
107
108
108
107
107
107
107
105
105
107
106
106
82
129
104
103
103
104
104
103
91
116
104
102
103
101
102
99
101
101
101
101
101
101
101
102
103
101
102
101
100
102
101
102
103
104
102
104
104
103
104
104
104
105
106
104
105
106
106
108
106
108
109
108
110
109
112
111
108
111
112
109
111
108
108
108
107
107
106
107
105
107
105
105
105
105
105
106
105
105
104
104
62
147
105
105
103
103
104
104
104
105
105
107
106
106
109
108
108
110
109
111
109
111
110
111
110
111
111
109
107
108
110
110
110
111
109
110
111
113
111
111
113
110
112
113
114
112
114
114
113
112
114
112
112
111
114
112
114
112
114
112
111
111
111
109
109
111
109
112
110
110
109
108
109
108
107
108
106
107
106
107
106
106
106
106
106
108
107
106
108
109
108
107
108
108
107
108
108
105
106
107
104
105
105
105
106
104
105
104
104
103
104
104
104
106
105
104
106
106
106
105
104
105
105
106
105
105
106
104
104
104
104
103
100
105
103
91
113
101
102
102
99
102
101
102
101
103
102
103
102
100
100
101
100
100
102
102
101
102
104
104
105
103
105
104
104
105
105
104
105
107
106
106
106
107
105
105
104
103
104
103
103
103
104
104
103
104
105
103
90
118
103
105
102
104
103
104
104
96
112
103
94
115
103
104
103
103
104
103
105
104
105
105
105
107
108
110
108
105
110
110
111
114
113
113
107
70
156
111
108
108
108
106
107
102
109
106
105
107
105
105
105
106
105
104
101
103
110
103
83
153
99
99
97
97
99
98
98
100
100
101
101
101
104
101
103
104
104
102
103
104
104
103
98
110
104
104
102
107
102
101
108
101
103
101
104
103
103
104
105
104
105
104
104
104
105
104
105
105
105
105
106
105
107
106
106
106
107
105
107
106
107
106
107
105
107
107
107
108
107
107
109
108
109
109
108
108
110
108
109
107
107
105
107
104
113
62
155
111
110
110
109
111
108
113
104
109
109
106
107
106
109
105
106
108
106
106
105
106
104
105
105
107
103
106
103
105
105
104
89
124
106
109
106
107
110
109
109
108
109
92
124
105
103
105
104
104
102
105
104
104
105
101
105
105
103
105
106
104
103
105
105
102
106
105
104
103
102
102
102
104
103
102
60
162
93
104
104
104
103
103
104
103
103
104
101
102
100
102
83
118
100
99
99
100
100
101
100
101
102
103
106
78
136
106
107
106
104
106
104
105
104
105
104
109
105
107
107
108
107
109
109
107
107
106
109
106
106
105
105
107
104
105
105
105
105
103
104
101
103
102
103
104
102
100
100
100
99
99
101
102
103
104
105
108
107
110
110
109
111
111
111
111
111
110
110
109
108
106
106
107
104
106
106
107
106
105
105
99
107
103
103
104
102
103
105
104
104
105
104
65
149
104
106
104
106
100
109
104
104
104
104
103
104
103
102
103
103
102
104
103
106
106
104
105
106
105
104
102
104
101
101
100
101
99
100
68
134
99
100
90
107
98
100
99
99
97
101
97
101
99
100
102
101
102
102
102
105
103
103
103
58
149
102
103
103
102
103
104
103
104
104
104
104
103
104
102
102
103
104
104
103
107
105
107
107
105
106
105
106
105
104
106
105
108
105
107
107
108
109
107
110
109
112
109
111
109
110
108
109
109
108
106
111
108
107
107
106
104
104
105
103
106
103
102
105
104
103
106
105
105
104
105
102
104
103
101
102
102
103
105
104
107
106
106
107
106
111
106
110
110
108
108
90
130
109
108
108
108
106
109
108
108
106
106
107
107
105
104
108
107
107
107
104
108
103
110
107
106
107
106
106
106
60
149
104
103
103
89
118
103
105
104
79
129
100
106
104
101
104
105
105
107
108
107
110
107
108
109
107
108
105
109
110
110
111
111
108
108
107
108
109
108
107
108
106
109
108
110
108
108
109
110
109
112
110
111
110
111
111
112
109
109
111
111
111
110
111
111
109
110
108
107
108
106
107
107
107
105
109
106
106
108
108
61
155
68
147
107
105
107
106
107
105
105
107
107
108
106
106
108
106
108
105
106
106
108
105
105
103
105
103
104
104
105
60
149
105
104
103
104
105
104
106
104
104
106
105
104
106
104
105
104
105
106
66
148
104
105
103
103
103
102
103
102
102
100
102
102
100
101
101
100
100
100
102
99
100
99
99
98
101
98
99
100
99
101
100
100
106
102
103
103
103
108
98
101
98
107
104
104
103
104
104
105
107
107
108
108
107
107
103
112
107
108
103
111
108
63
152
106
94
112
111
106
103
88
124
78
131
67
144
104
112
95
102
88
119
104
102
103
104
104
106
104
106
105
106
106
106
107
106
108
106
106
104
108
104
107
106
107
106
107
108
109
106
108
109
108
106
109
106
107
106
107
106
106
106
107
106
107
104
104
105
104
103
103
103
105
102
102
105
104
105
104
104
104
104
105
104
104
104
104
104
103
106
104
104
105
106
106
106
105
107
108
107
107
110
107
108
108
110
105
108
108
107
109
106
107
108
107
106
107
107
108
107
107
109
107
108
106
108
107
107
109
108
107
108
106
105
107
106
105
107
107
107
107
107
108
105
107
106
75
131
109
107
109
106
108
106
106
106
105
105
74
116
110
109
108
107
108
108
108
110
107
109
109
109
108
109
110
109
110
108
109
110
109
111
110
110
112
111
112
111
110
112
111
108
108
110
107
106
106
105
104
106
107
68
146
106
106
105
103
102
104
104
103
102
104
106
102
102
103
104
104
105
104
105
104
104
105
101
107
104
105
107
106
105
105
85
125
104
103
101
102
101
102
100
100
101
100
101
101
99
102
100
102
103
103
103
104
104
102
102
92
113
101
101
99
101
100
102
100
100
99
100
100
100
101
101
102
101
103
103
102
102
103
104
105
102
105
105
104
105
106
105
107
106
108
107
107
109
108
108
107
106
106
107
106
107
108
108
110
107
107
108
107
107
105
106
106
106
105
105
105
107
106
109
109
109
111
111
111
113
113
110
112
109
110
108
108
109
108
109
109
109
110
110
109
109
110
109
108
110
107
108
109
110
110
111
110
109
108
107
105
105
106
107
106
109
105
107
105
106
105
104
104
104
105
102
103
104
107
105
106
107
106
108
106
106
106
106
106
105
107
107
107
106
106
106
107
106
107
107
105
104
103
103
102
103
104
65
141
102
62
145
102
102
101
101
100
99
101
101
102
102
101
103
102
100
100
101
99
100
100
99
99
100
99
102
104
106
103
104
103
104
102
102
101
102
102
101
101
60
144
102
102
102
104
105
106
107
107
108
109
109
110
109
109
108
107
106
104
105
103
103
103
103
102
103
103
100
102
100
99
99
98
99
98
97
97
96
94
96
94
94
96
96
96
100
95
97
96
97
96
98
98
99
101
100
101
99
100
100
98
99
99
98
99
98
99
101
102
102
102
102
103
101
103
100
101
101
101
102
101
102
103
104
102
103
102
104
104
103
103
106
104
105
103
103
105
105
103
103
103
103
103
102
104
104
106
107
106
108
105
105
105
105
103
104
104
104
104
101
108
104
90
122
105
106
106
106
105
104
104
103
103
104
104
105
105
106
106
105
106
105
104
105
103
105
104
103
103
105
106
102
105
104
104
102
102
102
101
101
100
101
101
101
101
102
100
100
102
102
104
104
104
104
103
101
102
101
101
101
99
101
100
99
98
106
102
95
115
103
105
104
103
103
105
104
104
105
106
106
106
109
106
106
104
106
104
105
103
103
103
105
104
106
107
106
107
108
107
106
105
105
105
104
103
100
101
98
99
98
99
98
97
99
99
101
102
103
102
105
105
108
106
107
106
106
105
106
107
106
108
106
108
109
109
61
155
111
110
108
107
108
108
107
80
137
108
109
107
93
123
108
108
108
86
128
105
104
101
101
99
101
102
102
103
104
105
105
105
104
105
104
104
104
103
103
103
103
103
104
104
103
103
104
103
104
103
105
102
103
103
103
104
103
103
104
102
103
104
101
102
101
102
101
100
101
100
99
100
100
99
100
99
99
101
100
100
101
101
101
100
101
84
116
101
102
102
101
101
102
62
142
102
101
100
101
101
101
102
100
102
103
103
103
103
103
103
103
102
103
102
102
102
102
101
103
103
103
103
103
104
103
104
103
104
103
105
104
106
105
107
107
108
107
107
108
106
107
109
108
108
107
106
104
103
102
102
103
102
103
105
106
107
105
107
108
109
106
106
107
107
106
106
105
106
104
107
104
105
105
105
104
105
104
104
103
103
104
104
103
103
102
100
101
100
100
101
101
101
101
101
103
102
101
101
102
101
100
100
100
102
99
101
101
101
102
102
103
103
102
104
103
105
103
103
103
103
104
103
104
103
103
103
104
103
103
104
105
107
107
106
106
106
105
105
106
105
107
107
107
105
109
107
108
107
107
109
109
109
108
108
107
107
106
107
105
105
104
104
104
106
105
106
106
102
108
106
103
105
106
105
105
106
106
107
106
106
109
107
110
109
108
110
111
111
111
110
112
112
113
110
111
111
110
109
109
110
108
107
107
107
107
107
106
105
103
104
103
103
101
103
68
137
67
138
100
101
99
100
101
101
100
102
101
101
103
104
104
105
106
105
107
83
106
106
105
105
105
106
107
106
107
109
108
110
108
110
110
109
109
142
107
105
107
106
107
105
107
107
107
105
106
108
107
107
107
107
107
106
105
105
107
105
104
105
105
104
104
101
102
100
100
99
99
99
99
100
100
100
101
100
101
101
101
99
100
100
101
100
102
101
101
102
102
103
101
65
142
103
103
103
104
103
104
105
105
105
105
107
107
107
107
106
107
109
106
109
106
109
107
107
109
109
108
106
107
108
105
105
105
105
104
106
104
106
105
106
106
106
104
106
106
105
105
105
107
106
107
108
107
109
109
110
110
110
60
159
109
106
105
107
107
108
109
108
105
114
109
84
136
110
110
107
109
109
110
110
110
109
60
156
109
107
106
105
105
105
104
105
106
105
105
104
106
104
104
103
102
101
102
101
102
96
110
102
103
102
102
101
102
103
103
103
103
105
105
105
104
105
105
109
107
108
107
107
109
106
109
110
110
109
107
109
109
109
109
106
107
106
106
105
105
106
106
106
108
107
107
110
110
110
110
112
111
113
111
110
108
109
108
108
108
107
107
106
107
106
107
107
106
107
107
109
106
109
109
109
111
109
111
110
110
110
109
109
108
106
107
106
105
103
104
103
103
102
102
103
100
100
98
99
97
99
99
98
100
100
99
99
99
100
100
101
100
101
101
102
101
102
101
102
102
102
101
103
96
98
96
97
98
98
99
100
100
99
100
101
101
101
102
101
100
100
101
99
99
98
98
96
97
98
98
99
96
95
94
94
93
92
93
92
76
107
95
97
96
96
96
97
95
96
93
94
93
94
91
92
91
89
91
89
96
83
84
84
83
85
83
83
85
85
84
85
85
85
87
85
87
88
86
88
87
88
88
87
88
89
88
88
89
89
90
89
89
90
89
90
90
89
90
89
89
90
88
89
89
89
89
88
87
88
88
88
86
87
87
87
86
85
87
87
84
89
86
86
86
86
85
57
114
85
89
87
89
89
88
89
91
93
90
91
93
91
92
91
93
92
92
93
94
91
94
92
93
94
76
115
62
91
98
97
95
95
96
96
96
96
98
96
96
97
97
97
98
101
96
99
104
72
113
91
92
91
92
90
90
92
89
92
91
90
92
90
90
91
91
90
90
91
90
91
90
70
86
86
87
84
85
87
85
86
83
84
87
84
85
85
84
86
85
86
86
85
86
85
85
84
85
85
85
85
85
84
85
84
84
84
84
84
83
84
85
85
85
85
86
85
85
86
85
85
86
85
85
85
84
85
86
84
86
84
84
86
84
84
84
85
84
84
85
85
84
85
85
86
85
85
86
86
86
86
85
87
86
87
87
87
88
88
88
88
88
88
88
88
88
89
89
89
89
89
89
90
89
89
89
90
90
89
78
78
79
79
78
78
79
77
78
70
84
77
79
76
79
80
80
84
159
81
82
82
81
82
84
81
82
82
83
81
83
82
82
84
84
83
85
84
84
85
86
84
84
83
83
82
83
84
82
59
107
67
100
84
83
71
73
72
74
73
73
73
76
74
70
75
75
76
75
75
76
76
76
76
77
75
77
73
77
75
74
76
74
75
72
65
82
71
77
75
73
75
82
78
81
76
84
58
82
81
57
105
82
82
80
82
81
81
82
84
77
83
82
81
82
81
82
81
82
80
82
82
82
81
83
82
83
84
83
84
85
85
85
85
85
86
87
87
86
86
88
87
88
87
88
89
90
90
89
90
90
92
90
90
90
90
91
90
91
90
92
90
90
89
91
91
91
89
90
90
89
88
84
86
86
86
86
74
100
61
112
64
108
76
83
85
84
84
82
89
83
87
80
87
82
83
80
83
85
79
82
82
82
81
83
83
82
81
82
83
83
83
82
83
84
84
82
84
83
83
86
76
92
78
81
82
81
80
86
82
80
85
82
81
85
84
85
81
85
84
85
85
85
86
85
87
86
86
88
88
88
88
90
89
92
90
92
91
92
93
92
93
93
93
93
94
93
93
92
93
94
92
91
93
93
92
91
92
92
92
91
91
92
91
90
91
90
91
90
91
88
90
90
87
88
88
87
88
88
88
89
89
90
91
90
90
91
92
92
91
92
91
91
92
89
90
90
90
93
90
92
92
92
93
94
92
93
93
93
94
94
95
93
93
91
92
93
92
92
92
90
71
93
90
56
89
90
88
87
88
87
87
86
87
87
89
89
88
88
89
89
88
104
93
83
74
99
81
84
85
85
84
85
82
82
87
82
81
87
84
81
84
84
83
72
95
59
108
83
83
83
82
82
84
81
79
83
85
82
83
83
83
82
85
83
85
83
85
85
86
84
88
85
86
87
87
87
87
87
87
88
86
87
88
87
86
87
87
86
84
86
85
85
87
85
87
88
86
88
86
88
88
88
88
88
88
87
88
86
88
89
90
88
88
90
89
89
88
89
88
90
89
89
89
88
88
89
89
88
89
89
87
86
88
87
87
86
88
88
87
88
147
86
88
84
86
91
88
82
94
86
87
87
87
87
88
88
89
90
92
91
90
88
91
88
88
88
89
89
88
88
89
89
89
90
90
90
91
91
93
92
92
92
90
91
88
88
89
87
90
86
83
88
86
84
85
84
85
84
84
82
85
83
86
69
106
71
59
107
60
107
60
98
67
103
60
80
82
77
80
77
79
78
79
75
79
78
78
78
78
77
81
81
81
83
82
83
81
83
85
84
87
84
86
86
85
86
85
84
86
85
85
86
86
87
87
88
87
88
91
89
89
89
89
90
90
87
90
90
89
93
90
93
89
96
94
94
94
94
90
97
95
96
95
97
97
97
97
99
97
97
100
100
99
100
99
101
99
97
98
97
101
97
97
100
96
97
98
97
94
94
92
93
94
95
95
94
96
93
96
95
94
94
94
95
89
97
91
92
93
92
92
94
93
93
94
95
93
100
96
97
97
95
95
95
96
97
95
96
96
97
97
97
96
96
97
97
96
98
97
98
99
98
97
99
98
100
98
100
99
101
101
72
130
70
134
61
141
62
137
61
141
64
139
69
134
61
144
63
139
67
136
60
136
63
138
65
134
68
132
69
63
135
61
135
104
99
98
103
95
97
96
104
100
102
100
101
100
74
129
62
138
62
139
64
134
99
97
99
99
99
101
99
101
100
103
103
102
103
102
105
102
103
105
104
103
105
104
103
101
102
102
101
102
101
104
103
101
102
102
102
101
100
101
101
101
98
101
100
100
103
102
103
105
101
103
103
102
102
102
102
101
102
102
102
102
102
103
104
103
101
103
103
103
102
102
102
103
102
102
101
102
101
101
103
100
102
102
104
102
103
102
103
101
100
101
101
101
104
100
101
101
100
102
100
100
100
100
98
100
99
98
98
100
98
98
99
99
98
100
99
98
87
111
63
135
63
134
97
99
69
126
62
133
99
98
97
100
100
98
99
70
132
64
138
63
138
94
108
98
101
88
112
66
98
100
98
98
98
101
100
102
101
100
102
101
101
101
103
104
102
101
87
121
62
145
64
143
105
105
104
104
106
106
105
103
104
106
103
107
105
104
105
106
106
106
105
106
106
106
105
105
103
103
104
102
103
102
100
101
100
102
102
103
102
103
102
102
103
107
108
108
108
109
109
106
107
106
106
104
105
104
107
104
105
105
105
105
105
106
106
105
106
105
105
104
104
105
105
106
104
103
105
104
104
106
104
106
105
104
104
105
104
104
105
105
105
104
102
102
106
102
104
104
104
103
103
103
105
103
104
105
106
103
105
105
106
105
105
107
106
107
105
107
106
107
104
105
105
104
104
104
106
105
106
104
106
106
105
104
86
124
67
146
106
107
105
105
104
105
105
105
105
104
104
103
104
103
103
102
103
105
104
106
105
103
104
104
103
103
102
102
103
101
102
100
103
104
103
104
104
106
105
106
106
107
106
108
106
108
108
109
107
106
60
156
110
108
107
109
110
109
108
110
79
140
67
102
103
102
103
102
102
103
81
72
161
67
142
105
105
77
79
157
65
139
102
99
99
100
99
101
102
101
103
103
106
104
105
104
106
106
106
106
104
106
105
105
105
104
105
105
104
105
106
107
107
106
105
107
104
104
105
105
106
104
105
106
105
105
105
106
106
106
105
106
105
105
105
107
108
108
106
108
110
108
106
107
107
109
105
107
107
105
105
105
105
105
108
107
106
107
109
108
108
106
108
109
108
108
107
109
108
106
107
107
106
106
107
107
107
104
106
106
108
107
106
107
108
106
106
105
108
107
106
106
87
121
106
105
105
103
103
103
105
106
103
104
104
106
105
105
106
105
106
106
105
106
109
106
107
107
108
107
106
106
106
107
105
104
104
104
104
105
105
104
104
105
104
104
105
104
104
105
104
105
107
105
106
107
107
106
106
108
105
107
106
108
107
107
108
108
107
106
107
108
107
107
108
108
107
106
107
109
108
108
107
109
108
110
110
108
111
112
112
111
110
112
111
112
109
111
111
109
109
111
108
108
108
109
107
108
107
106
106
105
106
106
107
105
104
105
106
107
104
104
108
105
108
107
108
107
107
107
109
107
107
109
107
106
107
107
106
108
108
106
108
107
111
108
112
111
112
110
109
111
107
109
109
111
114
116
115
116
117
115
112
112
111
111
112
110
108
109
109
108
107
107
107
106
107
107
108
108
107
107
106
107
109
107
107
107
106
106
105
107
107
106
106
108
78
139
106
108
108
107
79
136
110
108
110
108
109
109
109
112
112
111
110
112
110
112
111
112
60
159
112
111
109
110
109
109
109
110
108
108
110
109
109
63
157
110
110
108
91
123
106
105
103
103
103
104
105
105
105
104
106
106
106
105
106
106
108
106
107
106
108
107
107
106
107
107
108
108
109
108
108
108
108
107
109
109
109
108
106
108
108
101
69
119
114
112
111
111
112
110
110
110
111
108
108
108
109
106
106
106
105
103
103
103
103
103
103
103
102
103
105
105
104
104
103
107
105
105
108
106
108
105
106
106
104
105
104
105
104
106
106
105
105
106
106
105
105
106
105
107
107
108
64
152
108
108
107
108
108
107
107
108
107
108
107
107
106
107
107
107
107
106
107
107
107
105
106
107
105
105
105
105
106
105
105
105
105
105
105
62
148
105
103
104
102
102
70
138
104
102
103
101
103
102
102
103
104
103
105
104
106
106
105
105
106
105
105
106
106
104
104
104
104
104
105
104
105
107
106
107
107
108
107
107
108
109
108
109
109
110
109
109
110
109
109
107
108
109
108
108
108
107
62
151
106
106
104
107
60
151
107
106
106
106
105
105
107
106
106
106
106
106
106
106
106
106
106
108
96
118
107
107
105
104
105
105
105
105
105
104
105
106
106
104
106
106
107
107
106
105
107
106
104
106
107
106
107
106
107
107
108
107
106
107
108
106
107
107
108
110
108
108
107
110
108
107
108
108
110
108
107
108
107
107
107
109
108
106
107
83
133
105
106
104
106
104
106
106
108
107
106
107
108
108
107
109
108
108
107
107
108
109
108
108
108
108
110
108
109
110
110
110
110
109
111
110
111
111
110
109
110
108
108
107
106
108
107
106
106
106
106
105
106
107
106
108
106
108
107
108
107
108
107
108
108
107
107
108
108
108
106
108
106
107
107
109
107
106
106
106
104
104
105
104
106
104
105
65
147
107
106
91
121
105
104
105
102
104
103
104
104
103
104
103
103
103
103
70
137
105
104
103
102
101
103
87
115
100
105
97
101
88
117
102
104
103
104
103
103
102
103
103
103
102
102
104
104
105
105
107
107
107
105
107
106
81
129
87
118
104
97
108
102
98
107
102
103
102
104
102
103
105
104
103
105
105
107
105
106
107
107
106
107
107
107
106
107
107
108
108
96
118
107
110
106
107
108
109
108
108
108
109
108
109
109
111
110
110
111
112
110
111
111
112
110
111
111
111
109
110
111
111
111
110
112
59
164
110
113
110
112
109
110
109
110
108
109
107
109
109
103
114
108
77
140
108
109
106
106
107
108
107
108
107
108
106
107
108
108
109
108
110
111
111
109
110
112
110
111
109
110
108
109
110
109
110
108
109
110
111
110
92
128
109
110
108
108
109
109
108
108
107
109
108
108
109
109
109
108
109
110
109
109
110
110
110
108
110
111
108
110
109
111
111
111
111
112
114
112
115
111
113
113
115
114
112
112
111
113
111
109
109
109
108
106
107
107
107
106
107
107
106
107
107
108
108
105
108
104
106
105
106
106
104
107
105
108
106
107
106
107
106
106
109
108
107
109
110
111
110
108
91
130
109
108
107
106
107
107
109
110
110
108
112
111
110
111
110
110
109
110
109
107
108
108
106
106
106
105
106
105
94
117
103
96
111
103
105
103
102
101
107
103
105
105
105
107
107
106
104
105
99
111
106
105
106
105
108
108
110
106
110
109
111
109
110
110
109
110
111
112
111
111
112
112
114
112
113
113
113
111
110
111
112
112
109
111
111
111
111
110
110
112
60
160
110
109
106
107
60
152
105
105
105
103
104
104
87
120
102
102
100
100
101
100
100
101
82
164
163
107
107
102
104
106
104
103
104
105
103
105
103
102
105
101
104
102
102
101
101
101
101
100
102
103
101
103
103
101
102
102
102
104
103
104
105
104
105
102
104
103
104
103
104
106
107
107
107
108
110
110
108
109
111
111
111
109
110
111
110
108
106
108
108
110
110
110
111
112
108
114
111
110
113
112
109
111
111
111
110
108
111
110
110
109
111
110
108
107
108
109
108
106
109
108
109
106
109
108
109
108
108
109
106
107
104
106
106
106
108
107
108
107
109
109
108
108
108
108
106
107
106
108
105
108
109
109
110
111
113
112
112
113
113
115
112
112
113
114
112
111
111
111
111
108
108
109
108
108
107
107
107
107
106
105
90
122
106
105
105
107
105
106
107
106
106
106
107
107
107
109
108
108
110
108
110
109
110
108
110
111
111
110
110
111
111
111
111
110
93
128
110
109
108
108
108
108
107
108
108
107
107
107
106
105
105
105
106
105
106
107
107
105
107
107
107
104
106
105
105
106
106
107
108
106
109
107
108
111
107
108
107
110
107
106
106
108
108
107
108
107
111
109
109
109
108
108
107
109
108
106
109
110
112
109
113
112
112
111
110
112
110
109
110
109
107
107
106
106
105
104
105
105
104
106
90
121
104
105
105
105
104
104
105
104
103
105
104
105
104
105
107
106
105
106
105
107
105
106
107
108
108
109
107
108
108
108
107
106
108
106
107
107
107
106
107
107
106
107
105
105
104
105
103
104
100
106
102
102
102
102
100
92
113
103
99
100
100
82
116
71
73
72
73
72
73
72
73
73
74
73
73
75
74
74
75
74
75
75
74
75
76
75
76
76
77
77
78
77
78
78
79
78
78
78
79
79
79
79
79
80
76
84
83
76
80
81
80
80
81
80
80
81
80
81
82
79
81
81
82
82
82
81
81
82
81
83
82
82
83
81
83
82
82
79
86
83
85
84
83
85
84
85
85
85
85
87
86
83
90
87
87
86
88
87
85
87
84
84
86
84
86
85
85
86
85
55
117
61
113
58
115
59
115
84
89
84
85
85
84
85
85
85
82
90
85
87
86
86
87
98
74
87
86
86
90
88
66
88
106
90
96
93
90
90
91
90
90
90
92
92
92
92
93
94
94
93
95
92
91
98
93
57
129
63
123
60
125
60
126
59
126
92
93
89
93
87
92
61
120
69
112
59
120
64
115
61
118
62
116
60
118
60
121
60
119
89
88
60
82
129
63
117
60
119
61
118
63
115
90
91
89
89
90
91
90
90
91
92
91
92
90
91
92
92
92
93
92
94
92
91
90
91
90
91
90
90
88
90
88
89
90
84
87
87
88
85
83
88
86
85
83
85
83
82
85
84
85
84
83
84
83
84
79
83
82
83
82
85
79
82
85
82
82
81
83
81
82
86
81
81
91
75
80
79
81
80
82
79
80
79
80
79
80
79
57
101
80
80
77
80
78
77
81
78
78
78
79
77
77
77
78
78
76
77
78
73
81
77
77
78
78
78
78
77
78
78
77
78
78
78
79
79
78
80
79
80
81
80
81
81
81
81
81
80
82
85
80
79
83
83
82
83
82
84
82
84
82
82
84
83
82
83
78
87
82
83
82
83
82
83
82
78
87
82
82
83
82
81
81
81
81
81
80
81
80
82
81
82
78
55
120
54
105
62
106
64
104
83
82
83
83
83
83
84
84
82
83
84
84
83
83
85
83
84
85
72
92
57
112
83
83
86
79
82
83
82
79
83
83
77
81
84
81
78
81
81
85
80
82
79
81
81
80
80
81
80
81
81
82
81
81
81
83
83
84
84
83
87
85
85
86
82
90
87
84
87
85
84
85
86
80
87
84
85
80
86
85
83
80
83
87
83
80
84
65
107
61
107
86
87
90
87
83
90
87
84
87
89
87
87
88
92
87
89
87
87
89
87
89
86
85
87
86
89
86
87
88
90
89
89
87
88
89
87
90
90
86
61
111
67
122
60
122
61
118
91
86
89
87
87
88
87
88
88
90
88
89
92
89
89
91
90
89
88
89
88
88
88
93
82
86
88
87
89
87
87
87
90
84
94
88
90
90
91
92
91
90
91
91
92
92
92
93
91
97
95
86
100
70
123
65
122
67
117
60
120
86
93
85
89
88
90
89
91
90
90
90
90
91
91
91
91
93
89
91
91
92
95
91
87
95
88
89
87
91
94
91
87
90
93
91
91
86
92
89
89
88
88
88
88
86
95
85
89
85
91
65
109
88
91
86
87
89
86
89
89
87
91
92
97
92
91
91
93
92
91
93
93
91
91
93
95
95
91
100
94
92
95
94
95
92
95
94
94
92
95
93
95
94
94
93
94
94
93
92
93
92
92
93
92
93
91
92
92
92
92
91
90
97
94
92
93
92
93
91
94
91
93
93
92
89
92
91
92
93
91
92
91
92
92
93
93
91
94
94
93
92
94
94
95
93
97
93
97
95
94
96
94
94
94
92
93
93
92
91
91
91
90
91
91
93
94
94
91
93
91
91
89
91
90
93
91
91
91
92
91
91
90
90
90
90
91
91
92
92
91
93
92
92
92
93
92
96
94
92
93
95
93
92
95
92
92
94
91
92
92
93
91
94
91
93
93
94
95
97
98
98
98
96
97
96
95
93
93
94
94
91
91
91
91
92
89
90
90
89
90
88
89
91
90
89
92
90
91
91
92
90
60
120
90
90
88
88
88
89
89
90
57
121
92
91
91
92
94
85
100
61
124
77
111
68
118
92
82
104
91
94
91
92
91
92
91
91
91
91
92
91
91
92
93
91
95
94
95
95
96
98
95
96
96
94
94
96
95
95
97
96
97
95
96
94
94
88
102
64
97
123
93
93
94
92
92
93
94
95
95
98
94
98
97
100
94
95
96
93
95
95
93
94
93
95
93
93
96
95
94
98
95
97
96
96
94
93
95
92
94
93
93
93
93
93
93
93
94
94
94
93
92
92
92
92
92
92
91
92
90
90
90
89
61
119
90
89
87
92
89
90
88
88
88
89
87
87
87
87
85
87
87
87
85
87
89
86
87
87
87
88
87
88
87
88
86
89
88
89
86
90
88
89
87
88
89
88
86
89
90
91
95
92
93
91
93
92
93
93
94
95
92
100
94
94
93
94
93
92
91
94
62
124
69
117
69
90
65
71
146
95
93
90
92
90
91
90
90
89
91
91
91
91
91
93
92
92
94
92
97
87
91
91
92
94
92
92
94
93
94
93
93
93
93
95
93
94
93
94
95
93
95
96
96
96
95
95
95
96
96
95
94
95
95
95
95
95
96
95
95
95
96
96
94
94
94
93
94
95
94
96
97
97
95
93
94
91
91
91
92
85
95
88
91
90
89
91
89
90
91
90
90
90
90
90
90
88
90
90
88
88
90
90
88
92
89
90
88
89
87
90
89
88
87
87
89
87
89
87
88
86
89
86
87
86
88
88
88
87
87
87
89
87
87
87
87
88
87
90
86
87
87
88
87
88
88
87
86
88
88
87
88
87
88
64
108
88
88
85
60
113
89
88
86
91
87
92
90
91
89
91
91
89
90
91
89
90
91
92
82
102
91
92
91
90
92
91
90
92
90
92
92
92
86
100
94
93
92
93
93
94
95
95
96
96
97
97
97
95
98
97
97
96
95
97
98
96
97
97
97
97
97
98
97
97
98
95
99
106
85
95
95
98
94
94
95
92
94
84
103
66
86
86
87
88
87
87
87
86
86
88
86
89
87
87
89
89
90
89
89
90
91
89
91
89
92
93
89
92
92
91
92
92
92
92
91
93
91
91
92
90
92
89
93
92
91
93
92
94
94
95
94
96
95
96
94
95
94
95
96
92
94
95
96
85
101
92
93
92
91
89
90
89
89
89
89
89
88
89
88
89
87
89
88
88
88
87
88
80
99
69
111
89
90
90
87
89
90
89
89
89
89
88
91
89
92
89
90
90
90
90
90
90
92
90
95
93
94
94
91
92
91
93
93
93
92
94
93
95
95
94
94
94
93
91
92
92
91
92
92
92
94
93
91
92
94
93
93
90
92
91
91
91
91
61
120
90
90
89
89
89
87
88
89
88
88
89
87
88
89
90
89
92
88
90
89
89
90
88
91
88
88
88
90
89
90
87
92
91
92
90
91
90
91
90
90
92
89
90
91
89
91
92
90
91
89
90
89
90
88
89
88
89
88
88
87
87
87
87
90
88
88
89
91
93
91
91
93
93
90
94
94
94
92
93
92
90
92
92
91
90
89
91
90
89
90
91
91
90
91
90
91
92
91
89
92
91
90
90
90
92
91
93
91
91
92
92
93
92
92
91
91
90
92
87
95
89
90
89
59
122
92
89
79
103
89
90
87
90
85
91
89
92
87
88
82
96
89
91
87
90
90
89
90
92
89
89
89
89
92
88
89
88
89
89
90
88
89
88
89
88
89
91
90
90
90
91
92
93
91
91
90
91
92
91
92
90
67
104
94
93
93
89
91
92
90
90
89
90
88
90
88
90
88
90
89
92
89
90
90
90
89
89
88
89
87
86
86
86
85
86
88
86
86
86
86
88
87
88
87
87
87
87
87
87
86
88
87
87
86
87
87
86
87
87
86
80
94
85
87
87
86
86
85
86
89
87
86
87
88
88
87
87
88
89
88
91
89
89
90
90
92
91
90
92
91
92
90
91
91
93
92
92
92
92
93
94
90
93
91
91
93
93
93
93
89
98
90
92
86
90
90
89
91
91
93
87
91
91
90
90
90
90
89
89
90
90
89
91
88
90
87
95
89
92
90
91
90
91
91
90
91
92
91
91
91
90
90
89
89
89
89
89
89
88
89
88
89
90
89
90
89
90
89
90
90
91
89
91
90
90
90
89
89
92
89
91
93
91
90
91
90
90
89
90
89
89
88
89
89
89
87
88
88
89
89
89
92
88
89
90
89
90
88
89
89
89
90
90
89
91
90
90
90
90
90
90
89
90
90
90
91
89
90
92
89
91
91
92
87
99
91
92
92
91
91
91
91
91
91
92
90
92
92
91
92
91
93
88
89
88
76
102
89
93
87
88
88
89
88
88
89
87
88
90
87
87
90
87
88
88
88
88
89
87
87
88
87
89
89
90
91
90
91
89
92
90
90
92
91
92
91
91
90
90
93
85
98
92
91
91
94
93
72
118
66
125
92
94
92
57
127
92
93
91
92
92
92
91
91
92
105
78
89
88
87
89
88
88
89
88
88
88
88
89
90
90
91
90
91
93
91
91
92
91
91
91
93
93
92
91
91
92
91
90
90
90
90
90
91
91
88
88
89
89
89
89
89
92
90
91
91
93
95
95
94
94
75
116
63
126
95
93
92
92
91
90
93
92
91
92
90
89
90
90
90
90
92
95
94
93
97
96
97
97
97
96
97
99
96
97
94
99
97
98
97
99
98
96
99
100
98
99
98
99
98
100
97
99
101
99
100
98
98
97
99
96
97
97
97
95
98
94
95
93
94
93
93
93
95
92
91
89
92
91
91
93
91
92
92
93
90
92
91
90
90
95
94
93
97
96
97
96
97
80
114
64
130
96
97
96
96
97
100
96
98
98
98
99
100
98
101
76
125
97
98
97
98
97
98
98
94
97
93
94
93
93
95
91
92
89
92
90
92
90
90
90
91
92
88
92
93
96
93
94
96
95
95
97
96
95
96
96
98
97
97
96
98
97
98
96
96
97
95
96
96
94
95
95
94
94
96
94
96
94
95
93
95
94
90
94
93
93
93
92
94
93
91
93
93
93
92
94
93
94
93
93
94
93
94
94
83
105
93
94
83
105
93
93
92
92
91
92
92
92
93
92
89
89
89
90
92
86
92
91
91
91
91
91
89
95
90
94
79
107
92
95
93
93
91
92
92
92
93
91
91
88
90
91
90
89
90
90
90
91
91
89
91
91
92
91
91
89
91
91
90
89
91
90
90
93
93
89
92
93
93
93
94
93
94
94
93
92
93
92
92
92
93
93
92
92
93
95
92
93
93
94
92
94
93
94
95
94
94
97
97
97
97
98
97
98
96
98
96
95
96
97
95
98
94
95
93
96
94
94
93
93
93
94
92
92
94
92
93
92
92
91
91
92
90
91
89
91
93
89
90
91
89
89
89
89
88
88
88
89
88
89
89
89
90
89
90
89
88
86
85
85
86
86
86
87
86
86
87
87
88
85
89
90
90
86
91
89
92
90
68
114
79
96
65
106
84
84
85
84
77
91
62
78
76
76
77
77
77
76
77
76
76
77
76
76
77
76
74
78
77
75
76
74
77
77
76
75
76
76
77
77
76
76
76
76
77
71
79
74
75
73
74
73
74
74
74
81
69
75
72
73
71
72
71
72
71
72
72
71
71
70
70
72
74
73
72
74
73
73
75
73
75
73
74
74
74
74
74
75
74
73
75
78
72
76
74
76
76
77
75
77
76
70
76
77
76
81
75
76
76
76
76
76
77
76
76
76
82
72
77
76
77
77
76
76
76
76
77
75
75
72
75
73
77
72
74
74
74
74
74
77
76
74
77
75
76
76
78
78
79
80
79
78
80
80
79
82
79
79
82
81
83
78
81
83
81
81
82
84
81
55
107
58
107
63
106
59
108
85
87
86
86
85
87
77
92
58
116
59
112
59
111
59
108
65
104
84
84
84
85
84
60
111
60
112
57
60
137
63
109
58
114
60
113
58
117
62
113
59
85
56
152
61
117
57
119
61
116
59
118
59
112
58
122
58
119
60
118
89
90
60
120
58
122
91
89
65
113
59
123
93
92
92
93
80
106
63
123
94
94
93
93
93
93
93
93
93
96
96
93
102
65
124
94
92
91
89
89
90
89
90
88
90
91
92
90
91
92
92
94
92
92
93
86
102
63
121
95
92
91
92
91
92
90
92
91
92
92
92
93
92
91
92
93
92
91
90
91
93
90
90
91
90
90
89
89
92
90
89
90
91
92
90
91
91
84
101
64
60
125
60
122
91
89
88
89
90
90
89
90
92
91
61
123
62
123
93
93
90
93
92
93
92
92
93
94
93
93
92
94
93
93
92
92
93
92
92
92
94
92
93
92
95
92
92
92
92
93
92
93
93
94
93
92
94
94
92
94
92
93
93
92
92
91
91
92
93
92
93
93
94
95
93
94
94
94
90
67
64
59
60
101
69
87
91
90
90
88
91
90
88
84
90
90
88
89
90
86
90
80
85
84
84
84
84
84
85
55
115
88
83
60
112
86
86
69
107
87
90
87
89
86
90
89
91
93
92
93
93
94
94
95
94
94
96
97
96
95
97
96
98
95
59
137
63
126
97
93
93
93
93
94
93
90
94
92
94
92
93
94
96
93
94
96
96
95
95
96
97
97
95
97
96
96
96
95
96
96
95
93
96
96
94
93
94
95
94
94
95
96
96
96
96
96
98
96
96
97
96
96
97
98
97
98
98
98
98
98
100
95
99
97
98
97
97
96
95
97
98
97
95
94
83
82
82
81
79
81
80
77
75
76
84
69
75
78
76
76
77
76
76
77
79
78
78
79
79
78
79
79
79
80
81
80
80
81
82
82
81
84
82
83
84
85
86
85
84
85
87
86
85
86
87
90
89
91
89
91
60
119
81
97
61
115
88
89
60
117
62
117
89
88
59
118
62
73
62
144
61
120
62
114
58
115
60
112
60
112
61
110
58
110
66
54
77
86
62
82
63
101
83
80
72
83
81
83
83
83
84
82
85
82
83
83
83
81
87
85
82
86
84
84
85
85
86
86
86
87
86
87
87
87
86
86
86
85
84
85
84
84
83
84
84
82
84
83
83
83
76
76
77
75
76
77
74
80
81
71
73
73
54
68
73
73
71
69
71
70
70
73
67
72
71
70
70
70
72
72
72
72
73
72
73
74
74
73
74
64
84
61
86
72
71
77
72
74
72
72
54
69
73
72
73
73
72
73
71
74
73
72
73
72
72
75
72
73
72
74
72
68
77
72
72
74
72
72
73
72
74
72
73
73
73
74
75
74
75
74
75
74
75
74
74
73
75
74
74
74
73
77
76
74
75
76
77
75
78
76
74
72
83
64
89
77
70
83
77
77
77
77
78
79
77
80
78
66
78
72
73
74
73
74
74
73
73
73
72
73
73
72
72
73
75
74
74
74
75
71
75
75
73
74
75
74
72
76
73
75
75
73
74
73
74
76
73
74
74
75
73
75
75
75
75
74
76
75
76
75
76
76
75
76
75
73
77
74
74
73
73
130
72
71
72
72
72
54
91
71
68
79
68
71
79
68
69
75
74
72
71
76
72
76
74
55
94
73
77
74
55
96
73
74
74
73
75
72
69
114
84
64
77
66
73
74
73
76
74
61
90
60
79
74
60
92
59
91
60
92
73
74
76
72
73
73
76
73
73
74
78
69
74
73
74
76
78
73
76
75
76
75
76
77
74
77
76
73
77
79
75
78
70
84
58
98
56
97
77
77
59
94
93
76
77
57
97
55
98
76
76
82
79
73
73
80
72
73
59
87
76
74
74
69
165
76
59
91
61
89
78
76
76
60
75
91
73
74
60
84
74
73
54
91
72
72
75
73
72
73
73
73
72
73
74
73
72
73
74
73
72
74
73
73
73
74
73
74
74
73
75
73
74
74
72
76
74
75
72
74
74
76
73
71
76
73
74
75
73
75
74
73
68
61
93
58
90
57
89
73
75
73
73
74
73
74
74
74
74
73
73
77
70
74
74
74
76
71
74
74
71
77
72
74
73
73
73
75
73
73
75
73
74
75
75
75
74
76
73
76
73
76
84
65
76
79
76
75
79
86
79
79
80
79
80
82
79
79
79
80
79
79
79
81
80
80
80
80
81
79
79
81
78
80
77
78
78
77
78
77
76
76
77
76
75
75
76
74
75
73
76
74
73
74
73
74
73
73
71
74
73
72
72
77
67
71
53
92
61
80
70
60
86
77
71
70
64
70
73
68
72
71
71
72
68
71
70
71
73
69
70
71
70
72
71
72
72
71
73
72
73
74
71
73
70
72
72
68
70
71
69
71
69
71
70
71
71
70
72
71
72
72
72
70
72
71
71
71
74
72
73
72
71
73
73
73
74
73
72
75
72
75
74
72
83
75
74
76
70
79
73
74
77
76
75
74
77
74
75
75
75
76
76
77
78
76
80
78
78
78
75
77
78
75
76
75
74
73
72
74
74
72
74
72
73
70
73
71
78
65
71
71
73
69
73
74
71
71
72
71
72
74
74
74
74
74
75
73
69
80
74
73
75
73
73
74
73
72
72
71
71
72
66
76
71
71
70
71
72
72
73
72
73
71
72
71
73
72
72
72
71
73
72
72
72
73
71
73
72
72
72
72
72
72
72
72
72
74
73
73
73
73
75
72
73
74
74
75
74
74
76
74
80
70
75
75
75
77
77
74
76
77
77
74
77
77
76
81
74
76
79
79
78
79
80
81
78
80
79
80
80
81
81
80
81
82
81
80
81
82
80
79
81
80
81
81
83
83
82
80
83
81
82
79
82
81
80
80
79
79
76
77
78
73
63
95
60
69
99
60
88
59
88
74
73
74
73
72
74
73
73
72
73
72
71
74
72
71
75
70
72
73
73
71
71
71
71
74
70
71
71
72
70
71
72
71
71
72
72
73
72
71
73
71
73
74
73
73
74
74
73
73
73
72
75
74
71
72
71
74
72
73
73
73
74
73
73
73
73
74
72
73
71
75
72
75
76
79
70
74
77
77
76
77
78
78
78
77
78
79
81
80
80
80
80
78
79
80
81
80
81
84
82
81
83
80
85
83
84
85
85
85
84
86
82
82
83
84
84
84
83
85
85
86
86
85
86
86
86
85
84
85
85
85
84
84
85
86
84
84
83
84
84
82
83
83
83
82
82
83
83
82
82
83
82
83
82
83
82
82
83
82
82
83
82
82
69
96
64
104
56
89
111
86
85
84
85
84
84
85
84
85
84
84
87
84
86
85
84
87
85
85
87
86
86
86
87
86
86
86
86
87
85
86
86
86
85
84
86
86
86
86
87
86
88
89
88
89
88
91
89
89
89
89
90
90
90
89
89
89
89
88
90
88
88
88
89
89
89
87
89
88
88
87
87
88
87
87
87
88
87
65
108
59
119
56
123
57
118
56
121
58
114
58
114
59
112
56
115
59
115
57
117
57
120
58
116
57
119
58
105
99
88
87
87
88
88
89
88
89
91
89
91
93
89
92
92
92
92
92
92
94
91
92
92
91
92
92
81
102
65
121
58
127
58
129
59
125
58
129
60
78
136
63
119
60
119
58
122
61
119
57
79
138
63
117
59
120
62
117
58
121
61
116
58
119
62
115
58
119
62
116
58
119
59
117
59
118
61
116
58
119
60
117
59
120
58
122
59
118
58
118
61
115
57
118
61
117
59
122
57
124
60
119
59
123
61
119
59
122
60
121
60
121
59
122
61
119
61
118
60
123
60
119
58
122
61
119
58
122
61
108
103
89
90
89
90
89
88
91
91
91
91
90
91
91
90
91
92
91
92
93
92
91
94
92
93
92
93
93
94
93
95
94
95
94
94
95
95
94
95
95
96
96
95
95
96
94
95
94
96
93
94
93
94
94
94
93
93
94
91
91
92
91
97
90
81
90
99
92
93
93
95
93
94
92
93
93
93
93
92
93
95
93
93
93
96
94
91
94
94
94
93
92
94
93
93
93
94
94
93
95
94
94
94
94
94
95
90
94
94
90
92
92
92
94
93
96
94
96
94
95
97
96
97
96
96
96
98
94
98
94
97
98
97
99
98
98
98
97
98
100
98
99
97
98
98
99
99
98
98
97
98
97
97
95
94
93
93
94
94
92
94
93
93
92
93
93
77
111
70
119
60
125
62
125
60
62
122
61
121
60
120
60
121
60
120
61
121
60
122
90
91
91
91
78
106
63
121
70
119
59
143
62
126
60
128
62
127
58
117
106
93
94
93
93
94
95
95
96
97
98
98
100
99
100
99
100
100
99
99
100
99
100
99
100
99
99
100
98
99
99
99
100
99
100
60
139
62
137
97
98
96
62
134
61
135
96
95
64
127
95
96
95
95
94
97
91
97
91
96
95
96
94
96
95
95
94
97
96
96
96
97
96
97
97
97
97
99
96
99
97
98
98
99
98
98
100
98
100
99
100
101
100
100
101
100
101
102
101
102
102
102
102
102
102
104
103
104
104
103
104
105
104
104
104
104
104
103
104
104
103
104
103
104
102
102
102
102
103
101
102
103
101
102
102
102
103
103
103
104
103
106
104
103
104
104
103
103
103
102
103
101
104
99
101
100
102
101
101
102
100
101
102
100
102
102
102
101
102
101
101
103
101
102
101
102
101
102
102
101
101
102
101
101
102
102
102
101
103
101
103
101
102
102
101
100
102
101
101
99
102
100
101
99
99
101
100
100
100
101
101
101
101
101
99
100
101
100
100
102
100
100
99
99
100
100
98
100
99
100
100
101
102
101
102
102
103
102
103
103
103
104
103
103
104
105
103
103
104
102
103
103
104
104
105
106
104
106
105
106
105
106
102
103
88
118
68
136
100
102
100
100
100
100
101
101
99
100
100
102
101
76
128
64
138
65
138
99
99
100
71
131
64
136
105
93
99
99
98
98
62
137
99
99
99
77
122
64
136
97
98
97
97
98
76
121
67
132
99
99
98
101
98
100
101
97
98
97
99
99
103
101
102
104
105
106
104
105
105
105
106
104
105
105
103
106
105
106
106
105
106
106
104
104
105
106
104
104
105
106
104
105
105
106
104
105
104
104
104
103
104
106
104
104
105
105
105
103
104
106
103
103
101
105
101
102
101
102
100
101
102
101
101
102
103
102
103
102
103
100
103
100
102
102
101
102
103
103
104
103
104
104
104
104
104
106
104
104
106
105
105
103
104
88
118
103
103
105
104
104
104
102
103
102
103
103
102
103
102
103
105
103
103
103
104
104
103
103
104
105
104
103
105
104
103
104
104
104
104
104
104
105
104
104
105
106
104
105
105
105
91
118
70
138
103
102
102
103
102
102
103
102
104
103
104
104
105
104
105
77
133
106
106
104
106
105
104
104
90
121
104
104
104
103
104
104
105
106
104
106
104
106
104
105
104
106
105
104
105
106
105
105
106
105
107
106
106
106
106
107
105
107
106
108
105
106
106
107
105
105
107
106
105
106
105
106
105
104
106
104
104
105
104
104
103
104
104
102
102
102
68
107
67
145
105
102
101
103
101
101
103
102
103
103
103
104
104
104
105
105
105
107
105
104
106
107
104
105
105
104
105
105
105
105
106
105
105
105
105
106
105
106
105
106
106
105
106
104
105
105
105
105
104
104
104
105
103
103
104
103
101
101
99
101
102
101
101
106
103
105
105
106
106
106
106
108
108
108
107
109
110
106
108
66
154
109
108
107
110
109
108
109
110
108
109
108
108
111
107
109
108
109
109
110
108
111
108
110
109
109
108
107
109
109
106
107
109
107
108
106
107
109
107
107
107
107
106
107
105
106
105
104
105
104
104
103
105
103
103
104
103
104
102
104
104
102
103
103
101
102
102
68
138
102
102
90
117
101
103
104
102
104
105
105
104
105
106
105
105
105
104
105
105
105
93
118
105
107
106
105
107
107
107
106
108
107
106
105
106
107
106
107
105
108
107
107
106
108
109
108
109
108
108
107
107
108
108
105
108
105
105
105
106
103
105
103
104
104
104
103
106
106
106
107
107
108
108
108
109
107
110
107
110
108
108
107
110
110
109
107
110
110
109
106
109
108
108
107
108
106
109
106
107
108
109
107
107
108
108
106
106
106
104
105
104
105
104
106
105
105
106
105
106
106
106
107
106
107
107
107
106
107
109
108
109
108
110
111
111
110
110
110
109
109
107
108
108
106
106
106
106
107
108
107
108
108
108
107
107
106
108
108
106
106
107
109
106
107
107
107
107
105
106
106
105
104
105
105
103
104
103
103
102
104
101
102
103
102
102
102
101
102
102
100
100
102
100
102
100
101
103
102
101
101
104
101
102
103
103
104
104
103
106
104
108
107
106
109
107
107
108
108
107
109
107
108
109
108
109
108
109
109
108
108
108
109
108
108
109
109
109
62
156
69
154
108
107
106
109
105
104
105
106
107
106
106
106
108
106
108
107
107
110
108
109
108
109
109
108
109
107
109
106
106
105
106
105
105
104
103
104
101
101
100
99
100
98
99
100
101
100
99
100
100
102
102
104
103
107
104
105
105
105
105
105
105
106
104
105
106
104
106
105
106
102
105
105
104
103
104
105
105
91
118
69
142
104
104
105
104
103
104
105
104
104
104
107
107
104
106
108
107
106
107
108
107
106
106
107
108
105
107
109
108
106
108
109
109
109
106
109
110
107
109
108
108
109
108
108
110
110
109
108
110
109
108
109
109
110
106
109
110
109
110
108
109
111
108
110
110
109
109
108
109
110
108
108
109
108
108
107
108
108
107
109
107
109
106
108
108
107
106
107
109
104
107
107
107
105
105
107
105
104
104
89
118
103
103
103
101
102
101
101
102
103
103
104
104
104
106
103
105
104
108
104
106
107
106
106
106
108
107
108
106
108
108
108
107
107
110
109
107
108
110
110
109
109
108
110
105
108
109
107
107
107
108
106
105
107
108
107
106
107
108
108
106
108
109
109
107
109
109
108
108
109
109
108
108
108
109
109
108
108
110
110
107
108
110
109
108
108
110
110
107
109
110
110
107
109
110
111
108
111
112
112
109
110
111
111
107
108
110
108
109
108
110
110
108
108
111
111
109
109
110
110
61
157
110
98
87
146
80
137
67
148
67
149
104
105
105
105
105
104
95
117
103
96
116
104
105
104
104
105
105
104
104
105
105
103
104
106
105
105
104
107
107
104
106
105
106
104
105
105
106
106
109
106
108
108
108
107
108
108
110
109
109
109
111
111
109
109
114
112
110
112
112
111
111
111
111
110
111
109
110
111
110
108
109
109
107
107
106
106
106
109
107
107
109
110
110
109
111
110
112
110
110
113
111
111
110
111
110
110
110
111
112
110
110
110
110
111
109
109
112
111
110
110
110
111
108
109
108
109
107
107
107
107
108
107
107
108
107
106
107
107
107
107
107
107
107
106
109
106
106
107
107
105
106
105
105
107
105
105
105
106
105
104
107
106
106
106
107
72
118
68
152
106
105
104
104
71
138
103
102
101
103
103
103
103
104
105
106
106
106
107
110
109
109
108
110
109
109
108
110
109
109
109
108
111
110
111
110
112
111
109
109
112
107
108
108
110
107
107
109
109
107
107
109
110
106
109
108
110
108
108
109
109
106
108
109
108
108
110
110
111
109
110
110
111
109
109
111
110
110
109
111
110
109
108
111
110
109
108
109
111
110
107
110
110
109
110
109
109
112
108
109
110
110
110
110
110
112
109
110
110
112
109
109
110
109
109
109
110
109
107
108
110
110
107
108
111
109
109
109
111
109
105
107
105
105
103
102
104
103
103
105
105
102
103
103
104
100
102
104
101
102
103
94
95
92
93
92
91
93
92
90
90
93
92
91
92
87
92
89
90
90
89
89
89
87
90
90
89
89
89
90
89
89
88
88
88
86
87
85
85
87
85
85
84
85
84
85
84
85
86
84
88
86
84
87
96
75
85
86
85
87
83
83
86
83
83
86
82
83
81
82
80
82
81
83
81
81
83
81
93
68
85
86
87
85
85
85
86
84
86
84
86
84
94
77
84
85
70
101
70
101
86
85
85
85
86
85
86
85
86
85
87
87
88
88
87
92
90
91
89
90
89
88
89
88
88
90
89
89
91
90
91
90
89
94
92
92
91
92
92
90
88
98
86
94
93
92
96
94
95
94
98
94
94
93
93
92
92
91
91
91
90
92
92
91
91
92
92
92
94
95
92
96
96
95
87
107
96
96
96
98
95
96
96
97
95
95
95
95
95
95
95
95
95
94
98
94
95
96
96
95
94
96
93
92
94
93
94
92
92
93
94
93
93
93
94
93
93
92
91
100
84
92
92
92
92
92
95
92
92
93
91
92
91
92
58
130
95
95
95
97
95
96
80
109
66
74
97
96
96
96
95
96
96
94
97
97
97
97
100
100
100
99
100
99
101
101
100
101
91
110
72
132
102
99
98
98
97
97
96
98
98
97
96
98
97
96
97
97
95
96
95
97
94
96
94
97
87
96
106
91
82
124
63
128
76
132
88
94
95
94
94
101
87
94
95
93
94
95
93
94
94
94
93
94
93
93
93
93
94
94
93
94
65
123
67
122
93
94
91
92
92
91
92
92
91
94
92
93
93
94
94
94
94
95
96
97
98
106
98
89
97
105
97
95
95
65
125
95
94
95
96
93
97
95
99
97
95
96
97
98
99
96
98
99
98
97
97
97
96
96
96
95
96
84
112
98
103
98
99
89
97
98
99
97
99
98
98
98
98
96
97
98
98
99
99
65
134
100
100
98
99
97
98
97
95
96
97
96
96
96
97
96
98
97
96
96
95
96
98
99
98
97
101
99
98
100
99
100
96
98
98
98
97
96
104
97
96
90
95
104
96
97
88
97
104
90
96
95
97
96
96
96
95
96
96
95
69
121
98
95
96
94
101
96
95
87
86
111
95
94
95
94
95
95
96
96
96
97
95
96
95
96
96
97
97
91
105
98
99
98
97
97
97
99
97
97
98
98
100
98
99
100
98
98
97
98
96
97
96
96
97
97
95
96
95
96
97
97
97
97
100
93
104
65
134
70
127
63
133
97
96
96
96
96
99
99
98
108
102
100
74
118
102
100
100
100
100
99
99
72
128
99
98
97
98
99
98
98
100
97
99
98
85
111
96
83
111
65
128
66
127
97
95
95
95
94
96
92
89
95
104
97
96
96
97
95
95
95
97
95
96
95
95
102
92
97
98
105
91
106
91
99
100
100
100
101
101
100
101
100
103
100
101
100
100
101
101
99
100
102
102
101
102
102
102
103
101
99
100
100
99
100
99
98
100
99
100
101
100
100
99
103
102
101
96
107
102
100
101
99
98
99
98
98
98
98
98
98
97
98
100
100
97
101
101
104
96
105
100
91
98
98
99
99
99
108
93
101
102
102
101
102
102
102
99
100
100
97
99
98
98
99
100
100
99
100
100
100
101
99
100
99
100
97
100
99
97
98
98
98
98
100
99
99
99
100
100
99
99
100
101
99
101
105
103
103
102
105
103
101
102
102
102
100
100
100
100
102
102
100
102
98
106
66
138
102
99
100
100
100
99
99
101
101
102
101
101
103
98
102
102
102
102
104
104
103
102
103
103
101
101
101
101
103
95
108
66
137
96
107
72
124
98
98
97
97
96
98
98
106
91
98
97
98
98
97
97
99
98
97
97
97
98
97
98
96
97
97
97
97
98
98
98
97
97
96
97
99
100
99
101
103
101
103
102
104
104
102
100
109
96
96
99
97
101
103
103
104
65
149
106
105
106
106
104
105
92
121
71
140
107
105
104
105
107
104
105
106
108
105
107
108
107
108
107
110
110
107
106
106
109
108
108
107
106
107
107
106
107
110
108
109
110
111
111
111
112
114
111
110
111
113
113
110
109
113
112
110
109
110
111
111
110
108
109
109
107
106
107
109
106
106
109
108
106
107
109
108
106
107
109
109
106
108
110
109
108
117
90
87
67
135
100
101
102
102
101
105
106
108
105
109
110
109
109
109
112
108
109
110
111
107
108
108
108
106
105
106
104
105
104
106
105
105
107
105
105
106
106
105
105
107
108
108
106
109
110
109
108
110
111
112
110
109
111
112
110
108
109
110
111
108
109
106
104
104
105
104
104
105
106
105
105
106
105
104
103
104
103
108
104
105
107
108
106
105
107
108
106
105
108
100
116
106
95
123
106
107
107
109
107
106
109
109
109
108
95
128
110
109
65
156
110
108
108
109
109
107
107
109
109
107
107
108
109
107
107
109
109
109
108
108
111
107
109
108
109
107
107
110
109
108
109
75
147
69
151
109
107
94
123
107
107
106
108
106
79
135
104
107
99
92
117
101
104
100
103
103
104
104
104
106
93
120
84
131
108
108
106
109
108
110
108
110
109
111
109
109
111
113
112
111
110
112
113
111
111
64
163
112
112
113
113
112
112
113
113
112
112
113
114
110
111
112
111
110
113
109
108
108
106
105
65
150
106
107
108
107
106
107
109
107
107
108
107
107
107
109
109
109
108
111
109
109
110
110
109
109
109
111
109
107
110
110
108
109
109
110
108
108
109
110
107
108
108
108
110
108
110
110
110
110
109
112
111
110
110
112
111
110
109
111
111
110
110
110
112
109
109
110
109
108
109
110
109
108
110
110
109
108
109
111
109
109
111
111
110
110
112
113
111
111
114
110
110
111
112
110
110
112
114
110
112
114
109
109
107
106
106
105
105
106
106
105
106
105
104
102
103
102
101
102
103
102
103
103
105
103
106
105
105
105
104
105
103
102
103
104
105
105
104
107
107
106
106
107
108
106
107
109
107
107
107
109
106
108
108
108
106
109
109
107
108
109
108
108
108
109
107
108
110
110
108
109
109
110
109
109
110
109
109
111
111
112
109
111
113
110
111
112
113
111
111
114
113
112
112
114
114
111
113
114
110
110
111
110
109
110
111
109
110
112
112
110
113
114
113
111
112
114
112
111
114
114
111
111
114
113
112
110
113
113
113
111
111
112
114
111
110
112
112
110
110
112
113
110
111
112
113
111
111
112
114
111
111
112
113
111
111
112
115
112
110
113
113
113
109
109
111
106
107
108
106
109
109
110
110
111
112
113
110
112
114
115
112
113
115
114
113
113
114
114
112
112
114
112
112
111
111
112
113
110
110
111
112
109
110
111
110
109
110
110
109
109
110
109
110
107
110
108
108
108
108
107
108
107
108
108
107
110
109
108
109
110
111
110
110
112
110
110
111
111
111
110
113
111
111
110
112
112
110
111
111
113
111
111
113
115
114
112
116
115
118
113
116
116
117
113
114
112
111
111
112
110
111
111
111
111
110
70
154
110
111
110
111
109
108
109
109
108
109
94
124
108
110
107
108
107
108
108
107
108
108
82
135
110
108
106
107
108
107
106
108
106
109
107
107
108
109
108
107
109
109
108
108
110
109
108
109
108
110
110
109
110
110
111
111
111
112
113
112
111
113
113
111
111
112
113
110
110
112
113
110
111
112
111
112
110
112
112
111
112
113
111
111
112
112
110
111
112
111
111
111
111
111
112
112
112
113
111
113
114
111
111
113
113
111
112
114
115
115
113
114
114
116
113
113
115
113
111
114
114
113
111
113
115
112
113
113
115
113
112
115
114
111
113
113
111
111
112
113
112
111
111
111
109
110
112
111
110
111
112
113
111
111
114
113
111
111
111
110
108
109
109
110
107
109
109
110
109
109
109
110
109
109
111
110
109
110
110
110
109
109
110
111
109
110
109
110
115
101
109
109
107
108
107
108
106
106
108
107
108
107
107
109
108
108
108
110
109
108
109
111
109
109
109
110
110
109
109
110
110
110
110
112
112
110
111
112
112
110
111
112
111
110
111
112
110
109
108
108
107
107
106
105
107
107
108
108
109
108
108
108
109
113
110
114
114
116
114
114
117
117
115
114
115
116
113
113
115
115
113
113
114
116
113
112
113
114
112
112
112
113
111
110
111
111
109
111
110
111
108
111
110
109
110
110
110
108
110
110
109
109
110
111
110
109
111
112
110
110
111
111
111
109
110
112
108
109
111
111
111
110
110
113
110
110
110
111
110
110
110
112
109
109
112
111
110
110
110
112
112
110
111
111
112
109
111
112
114
111
113
114
115
113
112
114
90
125
115
114
113
111
111
111
113
111
110
112
115
111
112
112
113
111
111
111
111
111
108
110
110
111
111
110
114
113
111
112
113
114
111
113
113
109
112
109
109
106
107
103
104
104
106
104
106
106
109
107
106
109
109
110
110
110
112
112
112
111
113
113
114
112
111
114
115
113
112
113
115
116
113
112
114
112
111
111
113
112
112
111
115
115
114
112
114
115
114
112
114
115
112
112
115
115
111
111
113
114
110
112
113
114
113
112
112
113
114
112
110
113
115
114
110
111
113
113
113
112
111
114
113
112
111
112
113
114
112
111
112
113
112
110
111
113
114
110
112
111
112
111
112
110
112
112
110
110
111
111
111
109
110
112
111
111
110
111
111
112
109
110
112
112
110
110
94
128
112
109
109
112
111
112
110
110
112
112
112
110
111
114
113
113
110
113
114
114
112
111
114
113
113
112
112
68
159
113
112
113
114
112
111
111
114
114
111
87
137
112
113
110
112
113
113
110
111
114
115
114
111
113
113
116
113
90
135
114
115
111
110
114
113
113
112
111
113
113
113
111
110
114
113
112
111
112
114
115
114
112
113
115
114
113
111
115
113
112
110
110
113
113
110
110
113
115
115
114
112
115
116
116
112
112
114
115
113
111
112
114
115
113
112
110
113
114
113
111
110
113
114
112
110
111
113
114
110
111
112
111
109
110
110
111
111
109
111
113
112
112
110
112
113
111
110
113
113
114
111
110
97
128
112
109
110
110
110
109
108
110
111
112
109
110
110
112
111
110
109
112
111
111
109
110
110
111
109
109
109
110
108
107
95
105
125
110
109
111
101
124
110
110
111
111
101
120
109
112
113
110
110
109
112
113
113
111
111
114
114
71
157
112
112
112
110
110
108
111
111
95
126
112
114
111
115
94
135
112
112
114
114
113
111
112
113
115
113
112
113
115
115
113
111
114
114
116
113
112
113
114
116
112
112
113
116
113
113
112
115
112
111
109
113
114
115
113
112
116
120
118
115
115
118
120
118
116
115
117
116
116
113
113
68
164
117
116
116
116
114
111
111
112
109
106
109
109
107
108
109
110
108
109
111
112
109
109
111
112
114
108
110
111
113
111
109
111
112
112
111
108
112
110
110
110
109
111
112
112
110
110
112
111
113
110
109
111
111
111
108
109
110
112
110
110
109
112
110
110
109
112
112
114
111
110
112
113
113
110
112
114
113
110
109
113
112
112
110
109
111
112
114
110
110
114
113
113
110
111
113
113
115
111
112
115
116
114
112
112
114
115
115
112
111
114
114
113
111
112
113
115
113
111
111
114
113
114
111
110
112
112
114
111
110
114
113
114
113
110
114
113
115
111
111
113
114
113
110
109
110
111
112
109
110
112
113
111
110
111
114
115
113
112
115
117
115
112
113
115
115
114
112
113
115
115
113
112
114
117
117
114
111
116
114
116
113
112
115
115
115
112
112
115
115
112
112
111
115
104
123
110
113
113
112
111
108
110
110
110
108
108
111
112
113
110
112
103
125
114
112
112
113
113
111
110
111
112
112
110
109
112
112
112
110
109
110
112
109
108
108
109
110
109
108
107
109
108
109
107
110
110
111
109
109
112
110
97
127
111
111
113
67
154
111
110
111
110
108
109
110
110
111
109
109
88
135
112
111
109
111
112
109
109
109
111
111
111
98
120
112
110
111
109
109
109
111
109
108
108
110
109
108
108
108
108
110
108
107
108
109
109
110
107
109
111
111
109
109
110
110
111
108
108
110
110
111
108
106
109
109
111
109
109
112
113
114
110
110
114
113
115
111
112
113
115
114
112
111
113
114
113
113
98
127
114
110
109
112
112
114
111
110
114
114
114
113
112
114
115
115
113
112
114
115
115
112
111
114
114
115
112
110
113
115
115
112
111
113
114
116
112
98
129
116
114
112
115
115
117
113
111
114
114
114
111
111
115
116
118
102
125
117
117
117
113
113
117
116
118
113
111
116
114
116
111
112
115
114
115
112
112
115
116
115
113
113
118
116
116
112
114
116
117
115
112
113
115
113
112
111
112
114
114
112
110
114
115
114
111
111
112
114
113
111
110
113
112
113
110
110
111
113
113
109
109
112
111
112
110
109
110
112
111
110
109
110
111
109
109
110
110
111
112
109
108
110
109
110
110
106
110
109
111
110
109
112
114
113
113
110
113
113
114
111
112
111
114
113
111
110
112
113
112
111
110
111
112
112
109
111
112
114
114
111
110
113
115
115
112
110
116
115
115
114
111
114
116
116
113
113
114
116
115
112
112
114
117
116
114
112
112
113
113
111
109
111
113
115
112
112
116
116
114
111
113
114
115
113
112
112
114
115
113
112
112
114
114
111
112
113
114
113
111
111
114
115
113
111
112
115
115
113
112
114
97
132
115
110
115
114
113
112
113
115
115
113
111
115
115
114
114
112
113
115
116
114
113
115
118
117
116
114
114
117
117
114
113
115
117
117
114
113
114
116
115
113
111
110
109
108
108
108
110
109
110
112
115
115
113
116
117
118
115
113
116
116
115
113
112
113
113
113
111
110
111
111
112
110
109
102
116
110
109
106
110
109
109
108
108
109
111
104
114
110
104
116
110
108
112
110
111
109
111
113
112
110
110
111
111
110
109
111
112
113
111
110
111
113
114
112
111
114
114
95
132
113
115
113
113
112
82
122
117
112
109
108
110
111
112
110
110
115
117
118
113
113
116
116
113
112
114
115
115
113
111
114
114
114
113
111
114
114
114
112
112
113
114
114
112
111
113
113
113
114
113
112
111
113
113
116
112
112
113
114
115
113
110
114
114
116
112
96
131
116
115
113
110
118
115
114
111
112
114
113
114
112
110
112
115
114
113
113
116
114
114
112
112
114
115
116
112
114
116
118
114
113
115
116
117
114
112
116
115
115
114
111
114
114
113
112
111
111
114
111
110
109
111
112
113
110
113
112
116
112
112
112
113
114
111
111
114
113
115
113
112
116
117
114
114
112
116
117
114
112
115
116
117
114
113
116
117
116
115
113
116
118
115
113
114
118
117
115
115
115
115
116
113
113
114
115
114
112
112
114
114
113
112
112
113
116
115
112
112
115
117
115
111
111
114
116
113
112
114
115
115
114
112
116
116
117
114
112
115
115
114
111
111
113
113
113
111
112
113
114
113
113
114
117
116
113
114
116
115
115
113
112
115
115
114
112
113
115
113
112
111
113
113
114
111
111
113
116
113
113
112
114
114
116
113
112
116
117
114
113
110
114
113
112
112
110
112
112
113
111
112
113
114
114
114
110
111
111
110
109
109
110
111
109
109
111
111
111
110
108
113
112
112
109
109
110
110
111
107
108
109
111
108
106
105
107
107
106
106
106
108
109
110
108
109
111
111
110
110
109
111
111
109
109
108
109
110
109
108
75
145
113
110
109
111
112
114
112
112
114
114
117
113
112
116
115
115
114
112
115
114
116
111
112
113
113
113
112
111
112
115
114
113
111
115
115
114
111
112
113
115
114
112
113
115
67
162
85
140
114
113
109
111
111
112
112
110
111
113
115
115
112
115
114
115
113
113
113
115
116
114
114
115
116
117
115
113
113
114
114
115
112
68
161
118
115
114
114
116
117
115
112
115
115
116
112
83
143
117
115
112
111
113
112
112
112
94
129
113
114
112
110
113
113
113
111
112
112
115
112
112
112
113
115
113
111
112
112
114
112
110
112
111
111
109
108
110
110
110
110
109
111
108
106
107
106
107
105
105
106
106
106
105
107
107
106
105
106
106
108
105
104
105
105
104
103
103
104
103
104
102
104
104
104
102
103
101
103
102
102
103
104
103
104
105
105
106
106
105
106
107
103
105
104
95
93
93
93
94
93
94
94
96
96
96
96
97
97
100
98
99
98
102
101
102
100
100
97
95
95
90
89
89
90
89
89
89
89
85
85
84
85
84
83
81
94
92
83
84
82
83
85
82
84
84
85
85
85
86
86
86
86
86
87
87
85
86
86
87
85
85
86
86
88
84
85
84
84
86
83
85
84
83
84
82
84
85
84
83
83
83
83
83
82
82
82
83
83
80
83
81
83
82
82
83
81
83
82
83
84
82
83
81
83
82
81
82
81
82
81
81
81
81
81
81
81
82
85
78
82
81
82
83
82
83
83
82
82
83
82
82
82
82
81
82
82
80
81
81
81
82
81
81
80
82
81
82
81
81
82
83
81
82
82
81
83
82
83
82
83
83
84
83
84
85
81
85
84
84
84
83
84
84
84
84
85
84
84
84
85
83
84
83
84
64
61
107
83
84
82
84
84
81
85
82
82
83
81
81
79
81
80
80
81
80
81
80
81
78
88
76
80
81
80
81
82
82
82
83
85
83
85
85
86
87
87
90
89
93
90
90
89
89
90
88
87
87
88
88
91
89
90
91
93
91
93
92
91
93
93
92
93
92
93
93
93
92
93
102
87
93
89
101
63
88
129
66
120
60
122
95
87
89
91
91
92
92
92
93
92
93
92
93
93
94
93
92
92
93
92
93
91
93
92
93
92
90
92
93
87
90
90
89
90
89
89
82
85
75
80
79
80
81
80
80
81
81
82
82
81
81
85
81
83
84
83
85
85
85
86
87
87
86
87
88
87
88
86
87
86
87
85
87
86
87
85
88
85
88
86
90
102
79
93
92
91
93
91
90
91
91
90
90
91
90
90
91
92
58
122
93
90
62
119
61
115
88
83
95
60
116
92
90
87
89
89
90
90
90
91
91
92
93
91
66
124
86
71
98
81
87
91
87
81
81
90
85
79
85
86
84
85
86
85
83
85
82
85
84
80
75
83
78
80
78
78
79
77
77
79
79
76
78
77
77
76
76
77
76
76
77
76
76
75
76
77
75
75
76
75
77
76
75
76
77
76
83
69
76
75
77
80
75
77
76
77
77
76
78
78
77
77
78
76
78
77
78
77
78
78
77
78
79
79
79
78
79
79
80
80
80
79
81
80
80
88
72
79
81
80
79
79
78
79
77
78
79
77
77
78
78
77
78
76
80
75
78
77
77
76
77
77
78
77
60
93
79
78
77
79
75
77
76
76
78
78
75
78
75
77
76
77
75
76
75
75
78
76
78
85
85
65
79
88
72
75
80
81
78
79
88
70
78
77
77
75
77
83
78
77
78
77
78
78
80
80
81
79
81
81
83
81
83
83
82
82
84
83
83
83
83
82
85
84
82
84
84
83
84
84
84
85
84
84
86
85
86
85
85
85
86
85
85
85
85
85
86
85
85
85
86
86
87
85
87
86
85
87
86
87
85
87
85
84
85
83
84
84
83
83
85
83
85
85
85
85
84
87
85
86
85
85
86
86
86
86
87
86
87
86
86
87
86
87
86
87
86
86
87
87
87
86
82
91
81
84
91
83
86
84
85
84
87
85
87
87
88
88
88
87
81
96
88
89
78
97
89
90
89
89
89
89
89
90
91
90
90
90
90
91
91
91
91
91
92
91
92
94
91
91
93
92
92
93
92
92
92
93
92
93
93
91
93
93
93
94
92
92
94
92
93
91
91
92
93
92
92
92
92
91
92
91
92
87
91
89
90
89
90
89
90
91
90
91
90
91
90
91
91
91
91
91
90
92
91
91
91
91
90
81
101
89
91
90
89
85
89
88
95
89
88
89
88
88
84
94
89
89
84
94
90
90
90
90
90
91
90
90
89
91
89
91
91
89
90
91
90
92
90
91
91
91
91
91
91
91
90
91
91
91
90
89
91
88
88
65
106
88
87
87
89
89
90
90
91
90
92
92
93
91
91
92
93
92
93
93
92
94
93
94
95
96
95
92
95
95
94
96
95
93
86
104
94
96
96
95
93
95
95
94
96
95
93
93
95
94
94
95
93
92
95
93
95
94
92
94
95
94
96
94
92
95
94
93
93
92
93
94
93
93
94
92
93
93
93
92
93
92
92
93
93
93
93
93
94
94
91
91
91
85
88
85
85
83
87
83
82
84
82
81
82
83
82
82
82
84
84
85
86
85
86
87
87
88
88
90
88
60
123
90
93
90
92
92
93
90
94
91
93
95
93
93
93
94
93
87
87
89
91
91
93
94
92
95
95
94
94
92
95
93
95
94
94
94
95
94
95
95
96
95
97
97
97
94
98
58
140
97
99
98
98
97
97
97
99
100
99
97
99
98
99
99
98
97
98
99
99
97
98
99
99
99
96
98
98
99
98
97
97
99
99
97
97
98
98
99
98
97
96
99
99
101
99
98
98
101
99
99
98
99
97
99
92
91
90
91
91
92
91
93
92
92
95
94
95
94
95
94
94
95
95
94
96
95
96
96
96
95
96
96
98
95
96
96
95
96
96
95
96
96
96
96
97
96
96
95
96
97
95
96
96
96
98
98
98
97
98
97
98
99
100
97
98
100
99
100
98
98
100
100
101
99
100
99
100
100
98
98
98
100
100
98
98
99
100
100
99
99
98
101
99
101
99
98
99
100
101
100
99
99
101
101
100
100
100
100
100
102
99
100
101
102
100
100
100
101
102
100
100
100
100
103
100
101
100
102
102
102
101
100
102
102
102
101
101
102
102
103
100
101
101
101
101
100
99
100
99
102
100
101
98
101
99
101
99
99
98
100
100
103
99
100
99
100
100
100
99
98
100
99
101
100
99
99
99
100
99
99
99
98
99
99
98
97
98
98
100
97
98
98
98
99
98
99
97
99
98
99
98
98
98
99
99
98
97
98
99
99
97
98
98
98
98
98
96
99
97
98
97
98
98
99
98
98
98
98
99
98
98
98
98
98
99
98
97
99
98
99
98
98
99
99
101
99
99
99
99
100
99
99
99
98
101
99
98
99
99
100
100
100
100
99
99
101
101
99
99
100
100
100
100
99
101
101
103
101
102
102
103
104
104
103
102
102
103
104
102
102
102
102
101
101
102
101
103
102
101
102
102
103
102
103
101
102
103
102
101
102
98
107
102
100
102
101
103
100
101
101
102
101
100
100
101
101
101
99
99
100
100
98
99
99
99
100
98
98
99
99
99
99
99
98
100
99
99
98
100
100
101
100
99
101
100
101
99
100
100
100
100
99
100
100
100
101
98
100
101
100
101
100
100
101
100
101
101
101
101
101
103
102
102
101
101
102
102
101
101
102
101
103
100
101
102
101
100
101
101
101
101
102
99
100
101
100
102
99
100
99
100
100
101
100
99
100
101
99
100
98
100
99
97
96
89
86
86
85
84
82
82
82
82
80
79
77
79
77
78
78
77
78
77
79
77
73
76
79
79
77
78
77
85
83
67
82
74
77
79
78
77
78
78
78
78
77
78
78
77
78
77
73
79
77
78
79
77
78
79
77
79
79
80
77
79
80
80
80
82
80
81
81
87
72
83
80
81
81
82
82
82
85
76
82
81
82
82
80
82
81
85
81
81
81
92
71
80
82
79
86
82
82
82
77
87
83
81
83
82
83
83
84
83
102
83
85
84
81
83
82
83
85
82
82
89
80
80
82
87
76
86
82
83
79
86
80
61
112
83
81
85
82
91
85
92
81
88
87
87
88
87
87
88
88
89
89
88
88
89
90
89
91
90
89
91
90
90
90
92
90
90
91
90
90
90
90
90
90
91
90
89
96
84
90
90
91
89
89
90
90
90
89
89
90
90
89
91
89
90
91
90
90
91
95
85
91
90
91
90
90
91
91
90
91
95
85
90
92
90
92
90
91
91
92
92
91
91
92
93
91
88
97
90
94
93
93
93
92
93
93
94
92
93
91
93
92
92
93
93
92
91
93
93
94
94
93
93
94
93
94
94
93
95
93
94
94
93
91
94
93
94
95
94
92
94
95
94
95
95
94
94
95
95
94
95
92
95
95
94
95
95
92
95
95
95
97
95
94
93
97
95
95
96
94
92
96
96
97
96
95
93
98
96
97
98
96
93
97
96
97
97
94
96
97
97
98
97
94
95
98
96
97
94
95
97
95
96
96
94
97
96
96
98
95
95
97
96
97
95
95
97
97
96
96
94
95
96
94
60
131
93
81
72
134
89
101
90
95
94
93
94
91
93
96
94
94
93
93
94
95
95
93
94
93
96
94
96
95
93
95
95
95
94
96
94
94
96
96
96
97
95
95
98
96
98
97
96
97
97
99
99
97
97
100
99
99
99
98
100
100
101
100
99
99
100
101
99
99
98
99
100
100
98
98
100
101
99
101
97
99
62
139
66
136
98
102
99
100
97
99
100
100
100
99
98
101
100
101
98
100
75
126
99
102
97
101
99
99
99
99
100
99
100
98
98
98
100
100
101
99
98
100
100
100
98
98
100
100
99
98
97
100
99
99
98
97
99
99
98
98
97
100
63
135
66
134
98
101
99
99
97
98
100
100
100
99
98
100
100
100
98
98
99
100
99
100
99
98
100
99
100
98
99
100
99
101
98
97
100
99
100
97
98
99
99
99
97
98
98
99
99
98
97
100
99
100
97
98
100
99
100
98
98
100
100
101
101
98
101
99
101
100
99
100
99
101
99
98
100
99
100
98
99
100
101
99
100
94
103
101
101
99
98
100
100
101
97
98
100
99
99
98
97
99
99
99
98
98
99
99
64
136
104
97
98
101
98
98
100
99
100
98
99
101
100
100
99
100
101
101
101
99
100
101
101
100
100
100
101
102
102
99
100
101
101
101
100
99
101
101
101
101
99
100
101
101
100
99
101
100
102
101
98
102
102
102
102
101
100
102
102
104
100
101
64
140
103
102
98
102
101
101
99
100
99
101
100
100
99
99
101
101
102
101
100
101
108
95
100
101
100
101
101
101
99
101
100
101
98
99
99
100
99
99
98
98
99
99
101
98
99
101
100
101
98
99
101
101
100
99
99
101
101
101
101
100
101
102
102
103
102
100
103
100
103
100
100
101
103
102
104
101
101
103
102
104
101
101
102
103
103
104
101
101
103
103
104
101
101
102
102
103
68
136
103
103
104
103
100
102
103
104
104
102
101
103
102
104
103
101
102
102
103
104
103
100
102
104
103
104
102
100
101
101
102
101
100
100
102
101
101
101
100
101
100
101
103
100
99
102
102
101
101
99
102
102
101
102
100
101
101
102
102
100
100
102
102
101
101
100
99
101
100
101
100
98
101
101
102
101
100
100
100
103
100
101
100
102
101
102
102
101
100
102
101
103
100
100
101
102
103
102
102
101
104
105
66
144
103
102
102
103
102
103
99
103
103
103
104
103
101
104
103
106
103
102
101
103
104
103
101
100
103
103
102
104
100
103
101
102
103
101
101
102
103
103
101
101
102
102
102
102
102
100
102
102
103
100
101
101
102
103
102
101
100
103
104
104
102
102
102
102
102
103
101
101
102
103
103
103
101
102
104
105
104
103
103
104
103
63
146
101
105
63
145
105
102
101
103
103
103
103
101
103
102
104
103
101
102
102
103
103
102
101
102
102
103
102
101
101
103
103
104
102
102
103
102
66
141
102
104
103
104
104
101
102
103
103
104
103
102
102
104
103
103
103
101
102
104
103
104
101
103
103
103
103
103
101
104
103
105
105
102
103
105
104
104
102
102
103
104
105
104
104
101
104
104
76
133
100
95
116
104
104
101
104
103
105
104
101
103
104
104
107
104
104
105
107
108
107
106
103
107
105
106
105
103
104
106
106
105
104
104
105
106
105
106
103
105
106
106
105
102
104
105
105
105
103
103
103
89
117
102
103
100
104
103
104
103
102
104
105
104
104
102
101
102
101
101
101
100
100
101
89
111
97
100
98
98
98
97
98
99
99
99
99
99
99
99
99
100
99
99
101
101
101
101
99
102
101
102
102
99
102
101
103
102
101
101
102
103
102
102
100
101
102
103
102
102
101
102
102
103
103
100
102
102
102
100
102
102
103
104
103
101
103
103
104
103
102
102
102
104
104
102
102
102
104
105
105
104
103
105
104
105
105
104
103
103
105
106
105
102
104
105
107
107
104
105
103
106
105
106
102
104
104
105
105
104
102
104
105
104
104
103
104
106
103
103
106
105
106
105
103
104
104
106
106
102
104
104
106
105
105
103
103
105
104
106
104
102
105
105
105
103
94
105
105
101
103
103
104
102
102
103
103
104
103
102
103
104
105
105
104
104
105
107
105
105
103
105
104
104
102
102
104
104
105
104
100
104
104
105
107
106
103
106
106
108
106
105
105
106
107
106
105
105
105
106
106
102
102
104
103
104
102
102
103
102
104
67
139
101
104
94
111
101
102
101
104
102
103
102
101
102
104
105
105
103
103
104
104
103
102
104
103
104
102
102
101
101
101
102
91
112
100
103
101
101
100
102
100
101
101
100
99
100
100
100
100
98
101
99
102
100
100
99
100
99
99
98
99
100
99
100
99
99
99
100
101
101
100
101
101
102
102
101
100
101
103
103
102
100
102
102
102
102
101
102
102
103
102
102
104
104
105
104
104
102
104
105
105
104
102
104
105
106
104
104
104
105
106
107
103
103
104
104
106
105
103
102
104
105
107
104
102
104
105
106
104
104
103
106
106
106
105
102
105
105
106
105
105
103
106
105
107
107
106
104
105
106
107
105
103
104
104
105
105
104
104
105
106
108
107
106
104
107
107
105
103
103
102
105
102
106
103
101
103
105
104
104
102
101
103
104
103
104
102
102
103
103
105
102
102
103
104
105
104
101
101
104
102
104
102
100
101
95
105
98
100
99
99
99
100
101
102
101
101
101
102
102
100
102
103
102
102
102
102
101
102
103
102
101
101
64
141
103
102
101
102
102
102
101
100
101
102
101
101
99
101
101
102
100
101
101
102
102
101
101
102
101
103
103
102
100
102
103
103
103
100
103
102
105
105
104
102
104
104
103
103
102
103
103
103
103
101
103
103
102
103
101
102
103
104
103
102
101
104
66
78
128
102
103
102
89
114
101
103
88
117
101
103
97
110
102
104
103
103
104
105
103
103
105
104
105
104
103
103
105
105
103
104
103
104
105
105
103
103
104
105
105
103
104
105
105
106
105
103
104
105
104
105
104
102
103
102
63
141
101
103
101
103
103
102
102
103
104
103
102
103
102
103
102
103
101
100
103
102
103
102
100
102
103
103
103
101
102
103
104
103
102
104
103
106
106
104
103
105
106
106
104
104
104
105
107
104
104
104
105
105
103
102
103
103
102
105
102
102
103
103
104
105
102
102
103
105
105
104
102
105
104
103
104
102
104
104
66
73
79
127
102
102
101
100
92
110
101
97
106
100
108
98
104
101
104
64
143
101
102
102
101
102
102
101
101
101
103
102
101
101
103
103
101
100
100
101
101
101
100
100
100
101
102
102
99
100
102
101
102
99
100
99
100
99
98
99
99
100
100
100
100
100
101
102
101
101
100
101
103
102
102
100
102
101
101
102
102
100
102
101
102
100
101
100
102
103
101
102
100
101
102
103
102
101
101
103
102
103
102
102
103
103
105
103
104
101
105
104
108
103
104
103
107
104
106
105
103
106
107
106
105
104
103
104
106
105
105
101
103
104
104
104
102
102
102
104
104
103
101
103
103
103
103
105
100
103
105
104
103
102
101
102
103
103
101
102
102
104
103
104
102
102
103
103
104
103
102
101
103
104
101
102
102
104
104
104
104
103
104
106
106
105
102
104
103
104
105
103
103
103
104
105
104
103
103
103
103
102
101
103
101
102
101
100
100
101
103
101
102
101
102
102
103
101
100
103
102
103
102
102
103
103
103
104
103
102
102
105
103
104
102
102
103
101
102
101
100
101
101
64
138
100
102
81
120
99
92
106
99
99
99
100
97
100
71
128
101
99
99
99
100
100
99
98
99
100
100
99
99
99
101
102
100
102
99
103
101
102
101
100
102
101
101
101
100
100
101
102
101
100
101
100
102
101
103
101
102
102
103
103
101
100
101
102
101
101
101
100
100
101
100
101
101
101
103
104
104
103
101
103
103
104
103
103
101
103
105
104
103
101
103
104
103
104
102
104
103
104
104
105
102
104
104
105
104
103
102
102
104
104
102
103
103
102
105
103
104
101
104
104
106
103
103
104
104
105
104
102
103
104
105
105
104
102
103
104
104
103
103
103
103
104
107
104
103
103
105
105
104
102
103
105
104
105
102
103
103
105
104
103
104
102
105
105
104
102
102
103
104
105
103
103
102
104
103
104
103
102
103
103
104
103
102
101
102
101
100
98
98
99
97
99
99
97
99
99
100
100
101
101
100
103
104
88
115
101
102
103
103
101
100
102
102
102
100
101
99
100
100
100
98
100
98
100
98
98
98
98
98
98
98
97
97
96
97
95
93
96
95
95
95
95
95
97
98
98
98
100
101
101
101
101
101
101
103
101
102
102
62
141
104
101
100
101
102
102
101
100
102
102
101
101
101
101
101
101
101
100
100
100
101
100
100
99
98
99
100
99
99
99
98
100
100
100
100
100
101
101
102
99
101
99
101
100
100
100
100
102
102
101
102
102
103
104
102
101
85
119
106
105
101
103
103
104
105
103
103
103
104
103
104
103
102
104
103
103
104
103
103
103
104
105
104
102
104
105
105
104
104
102
77
129
104
102
102
101
104
103
103
102
101
104
102
102
102
101
103
104
104
102
103
103
104
105
103
102
103
104
105
103
104
102
104
103
105
103
102
103
103
103
103
101
102
104
103
102
101
102
102
103
104
103
102
103
103
103
101
102
102
102
105
102
103
103
103
105
104
103
102
103
104
104
103
103
102
103
103
101
102
103
104
104
103
101
102
103
104
104
102
103
104
103
104
103
103
103
103
104
102
101
102
103
103
102
100
100
102
101
100
102
99
100
101
101
100
99
100
100
102
101
99
100
101
101
101
101
101
101
100
101
101
101
100
100
100
99
99
100
100
98
100
99
99
100
99
100
99
99
99
100
99
99
99
99
99
99
99
100
98
101
100
101
100
99
100
100
99
99
99
100
99
100
100
99
100
100
101
100
100
99
100
100
100
101
100
99
101
99
101
101
99
99
100
99
99
99
93
106
100
100
98
98
100
100
99
100
100
100
100
101
101
100
100
102
101
102
101
100
100
101
101
101
100
100
101
103
100
101
100
101
101
102
101
100
102
102
102
103
101
102
101
102
102
101
100
101
65
138
103
101
99
103
62
140
102
102
102
102
101
101
100
100
100
101
100
100
101
101
101
102
101
100
101
100
101
101
100
101
104
103
101
104
102
103
103
103
102
101
102
104
102
101
101
102
102
103
103
102
103
102
104
102
102
101
101
102
102
103
102
101
101
103
103
103
101
103
101
103
103
102
102
101
102
102
103
102
101
101
101
103
100
101
101
101
103
102
101
100
101
102
103
102
101
100
102
102
102
102
99
101
101
101
102
101
100
101
102
102
102
101
101
101
102
102
101
101
102
101
70
134
101
101
100
100
101
101
99
100
64
138
102
100
99
100
101
101
100
101
101
100
99
100
100
100
97
99
98
100
97
98
97
98
98
98
99
98
98
99
99
99
98
98
99
99
100
99
99
98
100
99
99
97
98
98
98
99
97
99
98
100
99
99
99
99
100
99
101
99
99
100
98
101
100
99
100
98
100
99
100
98
98
99
98
99
98
98
99
98
99
99
97
100
99
100
99
100
99
100
101
102
100
100
99
101
101
101
99
100
101
100
101
101
100
101
101
102
101
100
101
101
101
100
99
99
99
100
100
99
100
100
99
101
101
99
99
100
101
101
100
99
101
101
100
102
100
100
100
64
142
101
101
94
106
100
101
99
101
100
101
100
100
100
64
135
99
101
99
99
99
99
99
100
99
100
101
98
101
100
100
101
100
101
101
101
101
103
101
100
100
100
101
100
100
100
100
101
100
99
100
98
101
99
101
99
101
98
100
100
101
100
100
99
101
101
100
100
100
100
100
101
100
99
100
101
101
101
101
100
101
102
102
102
101
102
101
103
102
100
101
101
101
100
102
100
100
101
101
102
101
101
99
100
99
98
97
96
96
95
96
95
95
96
95
96
96
97
98
97
98
99
99
100
99
101
101
102
100
100
101
101
100
101
100
99
99
99
99
98
98
99
90
105
96
97
96
97
97
97
97
97
98
98
98
97
98
97
97
97
98
97
98
96
97
98
98
97
97
97
97
97
98
98
96
98
97
98
97
98
97
98
99
98
99
98
98
99
99
99
99
98
100
100
102
99
100
99
100
102
100
100
100
100
64
140
101
102
100
101
101
101
101
101
101
103
103
101
101
102
103
102
102
101
101
102
102
103
103
101
101
102
104
102
103
100
101
102
102
101
100
100
100
101
102
102
101
101
102
105
102
101
102
102
101
102
101
102
103
102
102
101
102
103
103
101
101
101
101
103
102
101
101
101
102
103
102
100
101
101
100
101
100
100
101
99
102
101
100
99
101
102
102
101
101
100
102
102
102
101
100
101
101
102
101
100
99
101
102
102
101
99
102
99
67
137
101
101
100
100
100
101
99
99
100
99
100
101
99
99
100
102
99
99
99
99
101
101
100
100
100
101
101
100
100
98
100
99
99
99
100
98
99
99
98
100
98
99
99
99
102
98
100
99
101
100
102
99
98
99
98
100
98
99
98
99
99
99
99
98
98
99
98
99
97
99
98
98
98
98
97
99
98
98
97
97
97
97
97
98
97
96
98
97
98
97
97
97
96
98
98
96
97
97
97
97
97
97
98
97
98
98
98
97
99
98
98
99
97
97
98
97
98
97
98
98
99
98
100
98
99
99
101
99
100
98
99
99
99
98
99
98
101
100
100
100
99
101
99
101
99
99
100
99
100
101
100
100
99
100
102
100
102
101
63
140
104
104
102
101
101
100
101
101
100
100
99
100
101
102
101
103
101
101
101
101
102
101
102
101
101
100
63
140
101
102
101
101
100
99
101
99
101
101
100
101
101
102
102
100
100
100
101
102
102
101
102
100
101
101
101
100
100
100
102
102
100
101
99
100
100
101
101
100
99
100
99
102
100
99
100
100
100
99
99
99
100
99
100
100
101
98
99
100
100
100
100
99
100
100
101
101
100
100
100
101
99
99
100
100
100
101
101
98
101
100
101
99
99
99
98
99
98
100
99
97
100
99
101
100
99
99
100
99
99
99
98
99
98
98
99
99
98
99
99
100
100
99
98
99
99
99
98
99
99
97
97
97
97
96
97
95
96
97
96
98
97
97
99
98
96
98
98
97
98
98
98
97
98
98
98
97
98
97
99
97
98
97
98
98
98
97
98
98
98
99
98
98
99
98
98
98
98
98
98
98
98
99
97
98
98
98
98
97
98
98
99
102
98
99
100
99
99
100
98
100
98
99
99
98
99
99
99
100
100
100
99
100
100
100
99
99
100
100
101
100
101
100
102
101
102
100
101
100
102
102
101
101
100
100
100
102
99
101
100
102
101
102
101
101
102
101
102
101
102
101
103
104
102
102
101
101
102
103
102
64
139
101
101
100
101
100
100
99
100
102
100
101
98
101
100
101
101
100
100
101
101
101
100
100
99
100
100
100
98
98
98
98
99
97
98
99
98
97
98
97
98
97
84
112
97
97
98
97
99
97
98
98
97
97
98
97
98
97
98
97
98
98
98
100
100
98
98
98
98
100
98
99
91
104
101
100
100
100
100
99
98
98
96
98
97
98
98
99
100
100
101
102
101
102
101
101
102
104
106
104
103
103
105
102
104
101
102
101
101
101
100
100
101
99
100
99
100
98
99
99
98
98
99
98
98
99
100
99
98
100
99
101
99
100
99
100
101
101
99
99
100
100
99
101
100
99
100
99
101
99
98
99
99
100
98
100
98
99
99
100
100
98
99
99
99
98
99
98
100
98
100
99
99
99
98
100
99
99
99
99
99
100
100
99
98
100
99
101
99
99
99
98
99
99
100
98
99
98
101
99
98
100
98
99
100
99
99
99
99
99
101
98
99
100
99
100
98
99
99
100
100
99
99
99
100
100
101
99
100
99
100
100
100
99
101
99
101
100
99
99
99
99
99
99
99
98
100
99
99
98
98
98
99
99
97
98
98
99
99
99
97
100
96
98
98
97
98
97
97
98
98
98
97
98
98
99
98
98
99
99
100
99
98
99
99
100
98
99
99
99
100
98
100
98
99
100
99
99
98
99
99
99
100
92
105
98
101
100
100
99
98
100
100
100
100
98
100
100
101
100
101
100
100
101
102
101
100
99
101
101
100
100
98
100
99
101
99
99
99
100
98
100
98
99
100
99
99
98
98
64
134
101
99
81
117
98
100
99
98
98
98
97
99
98
99
98
100
100
101
98
99
99
101
100
100
99
99
99
99
100
97
98
98
99
98
98
98
98
99
99
100
100
100
100
102
100
101
99
99
99
100
77
121
97
99
98
99
98
98
98
98
98
99
99
100
98
100
98
101
99
99
99
100
99
101
99
100
98
100
62
135
98
100
98
99
100
99
99
98
100
100
99
99
98
99
99
99
101
98
98
98
98
96
95
95
95
95
93
94
94
94
93
94
94
95
93
94
94
93
94
94
94
94
94
95
95
97
95
96
97
98
97
98
98
100
99
98
97
97
97
96
97
96
96
96
95
96
95
95
95
95
94
95
95
96
94
94
95
93
94
94
93
93
94
94
95
94
94
95
95
96
94
96
95
96
95
94
96
94
94
95
95
95
95
95
96
95
96
96
96
97
96
97
96
96
97
97
97
98
99
100
100
101
100
100
101
104
101
102
101
101
103
103
102
102
101
101
102
104
100
100
100
100
104
101
99
100
99
101
100
99
100
99
101
100
100
99
99
99
101
100
99
99
98
99
100
99
99
98
100
100
100
100
99
99
98
101
99
99
99
98
101
99
100
100
98
101
100
102
100
100
100
101
103
101
100
100
99
101
100
100
98
100
71
129
100
99
99
99
101
99
100
99
99
99
101
100
99
101
100
102
100
101
88
110
101
101
101
99
99
99
99
100
100
100
100
100
102
101
100
99
101
99
102
100
100
99
100
99
100
99
99
98
99
99
100
98
98
99
99
100
98
99
99
100
99
101
99
99
99
101
99
99
98
99
98
99
99
98
98
99
99
99
98
97
97
97
74
121
96
98
96
97
97
97
97
96
98
96
98
96
96
97
97
97
98
96
97
97
96
97
96
97
96
98
98
98
98
97
99
98
99
98
97
98
98
98
97
98
96
97
97
99
98
97
99
97
98
99
97
98
98
97
99
98
97
99
97
98
100
97
97
97
98
100
98
99
98
98
98
99
99
98
98
98
98
99
98
98
97
98
98
98
98
99
96
99
98
99
98
99
98
99
99
99
99
97
99
98
98
98
98
98
99
98
99
98
98
97
99
98
99
98
98
98
100
99
100
96
100
99
99
99
99
99
98
101
99
99
99
99
100
99
100
99
98
99
97
99
98
99
97
98
97
97
96
98
98
99
96
98
98
99
98
98
97
98
98
98
98
98
97
98
97
97
97
97
97
97
98
97
97
97
99
97
98
97
98
97
97
97
96
96
96
97
97
97
97
96
97
98
98
99
99
99
98
100
100
99
100
98
99
99
65
131
99
97
97
96
95
91
97
94
93
94
93
93
78
109
92
93
92
94
92
80
105
92
94
92
92
92
81
103
91
92
92
90
91
79
103
95
86
89
89
89
89
65
114
89
89
89
88
88
84
85
85
84
85
84
84
84
84
83
84
85
84
84
85
85
87
87
88
88
90
90
92
92
93
93
92
93
93
59
126
93
95
92
93
92
94
93
94
92
96
93
94
94
96
93
96
94
92
93
93
92
92
92
93
94
93
94
94
94
95
93
95
94
93
93
93
93
93
94
95
91
94
94
94
95
94
95
95
95
93
94
95
93
94
94
93
95
95
93
94
94
94
93
96
93
94
95
95
96
96
96
95
94
95
94
94
92
92
91
91
90
90
89
89
89
89
89
89
88
90
90
90
92
92
93
93
95
95
96
97
97
98
100
101
99
100
71
128
101
99
99
98
99
99
99
99
98
99
99
99
98
99
99
99
97
98
98
98
97
96
96
95
95
95
92
94
95
94
95
97
95
95
96
97
96
98
96
98
98
97
98
98
98
98
98
97
97
98
96
98
97
97
97
98
96
98
95
97
95
97
97
96
96
97
96
96
95
96
95
95
95
96
95
94
93
95
94
94
93
94
93
93
95
94
94
97
94
96
96
97
96
98
99
97
98
99
98
99
99
98
98
98
98
98
97
97
98
98
96
97
97
96
97
97
97
97
98
97
99
98
98
97
98
97
97
98
90
102
97
99
100
98
99
100
101
100
100
100
98
100
100
99
99
98
100
99
99
99
99
100
99
100
100
99
100
100
100
100
98
98
98
98
98
98
98
99
99
99
98
98
97
99
99
98
99
100
101
102
101
100
99
103
102
100
101
101
101
103
100
99
98
99
99
98
99
98
101
101
101
100
102
100
103
101
101
101
100
100
102
101
101
100
102
100
103
101
100
98
99
98
100
98
98
100
100
100
99
97
100
99
99
100
98
102
99
103
98
99
98
99
99
100
99
99
101
100
102
101
100
101
101
101
101
100
99
101
103
102
101
100
100
100
99
99
99
98
100
99
100
99
97
99
99
98
98
98
98
98
98
99
97
98
98
99
98
99
99
98
97
98
99
98
97
97
96
98
98
98
97
97
98
99
98
98
97
99
97
97
97
96
96
96
96
97
95
96
96
96
96
97
95
96
96
96
95
96
95
95
96
96
95
97
97
98
97
99
97
98
97
98
98
98
98
98
100
99
100
98
99
101
99
100
100
100
98
99
99
97
98
96
99
97
98
97
96
98
98
98
98
98
97
98
100
99
99
98
99
100
100
99
100
99
99
101
100
99
98
101
99
99
99
98
98
99
99
99
99
99
97
99
98
99
99
98
100
101
102
102
102
103
102
105
103
105
103
101
104
104
103
102
101
101
102
102
102
104
102
104
104
105
103
101
102
102
102
103
100
100
101
100
101
101
101
99
101
100
101
101
99
99
100
99
100
99
100
98
103
99
102
100
100
101
100
100
100
98
100
99
100
98
99
100
98
102
100
101
101
100
101
101
101
101
100
101
101
102
101
100
102
100
99
99
99
99
99
97
101
98
98
98
99
98
101
98
100
99
101
101
101
101
99
101
99
100
97
99
99
99
99
102
98
99
101
101
101
102
101
100
102
103
102
101
99
101
101
102
101
102
102
104
107
107
63
150
107
110
107
107
106
106
105
107
107
105
105
105
105
105
104
105
104
105
107
104
74
133
101
105
100
100
100
100
99
97
97
79
116
97
97
96
97
96
96
98
96
98
97
95
97
97
96
96
95
97
95
96
95
96
94
96
95
95
95
95
94
95
95
96
96
97
97
95
99
98
97
97
98
98
97
99
98
97
98
98
97
98
98
97
97
97
98
99
100
101
99
103
102
102
101
101
102
102
102
101
101
102
101
100
100
99
99
98
99
97
99
98
98
97
97
99
98
99
96
100
98
98
99
97
98
97
99
97
99
99
99
100
102
101
102
102
103
104
102
103
100
101
99
99
98
98
98
99
99
99
99
99
100
100
99
99
100
99
100
98
100
98
99
99
100
99
99
99
99
100
100
101
99
98
100
99
102
101
99
100
101
102
101
101
100
100
99
100
99
100
101
100
100
101
103
103
103
104
101
104
104
103
102
102
104
102
106
103
104
103
106
105
106
105
106
106
107
107
105
106
105
105
105
104
104
104
103
103
104
100
101
101
99
100
99
99
98
99
98
98
100
99
99
69
132
100
103
103
103
103
103
102
103
103
104
102
104
102
103
102
102
101
101
99
100
99
98
99
99
99
98
99
96
97
98
96
96
95
96
96
95
95
94
95
94
94
94
95
95
96
96
97
97
97
98
98
98
98
98
99
100
101
100
101
101
100
101
100
100
99
101
100
100
100
101
101
102
103
104
102
104
103
101
101
101
101
101
100
100
100
99
98
99
98
98
98
96
94
99
96
96
96
95
94
94
95
93
94
94
94
95
94
94
96
95
96
92
100
97
95
96
96
96
97
97
98
97
99
99
98
99
99
98
99
97
98
97
98
98
98
98
98
98
98
98
99
99
102
103
103
104
107
114
109
108
108
107
102
102
104
104
104
105
89
119
103
104
104
104
104
103
103
105
105
104
104
103
102
101
104
103
101
102
99
102
100
101
100
100
99
101
100
100
100
99
100
101
103
101
100
101
100
102
103
105
103
103
104
106
104
104
106
106
107
109
110
112
108
110
109
109
110
109
108
107
107
107
106
92
121
105
106
105
106
106
107
109
107
107
107
105
104
104
103
104
102
101
102
101
100
99
99
98
97
98
98
96
98
97
97
96
96
96
96
95
95
94
95
95
93
94
95
93
95
94
96
75
117
97
99
99
99
99
101
100
101
100
100
101
100
100
100
100
100
100
100
100
99
98
63
132
97
99
96
98
96
96
97
97
97
97
97
97
99
99
99
99
99
100
100
100
99
101
102
102
103
102
103
104
106
104
105
105
103
107
106
107
106
107
106
105
104
106
103
104
104
104
104
102
103
104
103
103
102
101
101
103
102
104
103
105
107
106
105
104
105
105
103
103
102
103
103
102
102
101
101
101
103
102
102
101
102
103
102
101
101
101
102
101
100
100
100
100
99
99
99
99
98
99
98
99
96
98
98
97
96
98
94
96
94
96
95
95
94
94
94
94
94
95
94
94
93
95
94
95
94
94
94
94
94
95
93
94
95
94
96
94
95
94
96
96
96
96
96
97
96
97
97
98
97
97
98
99
98
99
100
98
98
99
101
101
100
101
99
101
100
101
102
100
100
100
99
100
99
101
99
100
99
99
103
96
100
99
98
99
98
99
98
100
100
99
101
99
103
101
102
103
104
105
104
104
104
105
106
106
106
105
105
105
107
105
105
104
105
104
104
104
104
104
104
103
103
103
102
101
102
103
102
104
102
103
104
103
105
104
103
103
105
103
104
103
104
105
104
105
103
104
104
103
103
101
99
98
97
96
96
96
96
96
96
97
97
97
98
98
97
97
98
97
98
98
99
99
99
102
102
102
103
102
104
105
104
104
104
104
103
106
104
104
103
104
104
103
103
103
103
104
104
105
103
103
104
103
104
104
103
102
102
104
102
101
101
101
101
101
103
100
100
99
99
99
100
99
99
99
100
100
99
100
100
100
100
100
100
100
100
101
102
100
99
100
99
101
100
102
100
101
100
101
101
101
103
102
103
70
140
106
107
105
106
106
109
107
107
62
155
107
108
106
108
107
108
107
106
94
123
105
89
123
105
108
106
105
105
105
105
106
107
104
105
102
103
102
103
100
100
99
102
100
100
100
99
100
97
101
98
99
97
98
98
98
98
98
97
98
98
98
98
99
99
99
99
99
99
99
99
101
100
102
102
103
105
105
104
105
105
104
104
104
104
103
103
102
103
101
102
102
100
102
101
102
99
101
101
102
99
101
100
103
102
100
101
100
100
99
102
102
101
103
106
106
106
107
104
107
108
109
106
106
103
107
105
104
104
104
103
105
104
104
105
103
105
104
105
104
67
144
105
108
104
105
107
106
106
106
106
107
110
107
107
106
106
106
107
106
104
105
104
105
102
105
101
102
102
104
102
101
102
102
101
104
105
103
104
104
105
108
107
107
107
106
105
105
104
103
104
104
103
103
102
101
103
103
104
103
103
104
105
106
104
105
103
104
103
102
101
100
99
99
99
100
98
99
99
99
99
99
99
98
99
98
99
99
99
98
67
128
99
98
98
98
98
97
98
98
97
98
97
96
96
98
98
97
98
98
99
99
99
100
99
98
100
100
99
100
99
99
99
98
100
99
100
99
102
101
101
101
100
100
99
100
100
100
99
100
99
98
101
100
99
100
97
98
94
108
100
103
103
104
108
104
105
104
105
105
104
104
102
101
100
100
100
100
101
100
100
99
100
100
100
98
98
99
98
99
99
97
95
99
97
96
99
96
98
97
97
99
98
99
99
101
100
100
102
101
101
101
101
102
102
102
103
101
102
103
103
102
105
105
103
103
102
104
104
104
104
103
102
102
104
103
103
102
102
100
99
101
99
100
98
98
98
100
99
99
99
100
98
101
100
100
100
100
102
100
101
100
100
100
100
100
100
99
100
100
101
103
101
100
99
101
101
101
98
101
98
99
100
98
98
99
98
99
99
102
100
103
100
104
102
102
102
102
102
103
102
102
101
103
103
100
102
100
103
99
101
101
101
100
102
101
101
101
100
101
99
103
100
99
100
99
97
97
97
97
95
94
93
90
89
89
88
89
88
87
90
87
88
88
88
89
91
90
93
93
96
93
95
97
97
98
99
97
99
99
100
98
99
100
100
100
102
99
100
100
99
103
100
100
101
101
100
102
100
101
100
102
100
101
99
100
100
100
101
99
99
99
100
101
102
100
99
99
100
99
100
98
100
99
100
100
101
102
102
103
102
101
104
60
150
107
104
104
104
105
105
105
104
102
105
104
106
106
105
104
103
105
107
107
104
106
104
107
107
104
105
103
106
105
104
103
104
102
102
104
103
89
116
101
104
101
100
102
103
103
103
101
102
102
101
63
142
102
102
102
101
101
101
101
99
100
101
101
102
101
104
104
107
104
104
106
107
107
108
108
105
106
109
107
108
106
104
105
104
107
105
104
103
105
103
104
104
102
103
104
103
104
104
102
103
103
102
104
102
102
101
100
101
102
100
100
100
101
102
101
100
102
102
102
103
101
101
103
103
103
103
102
102
104
103
104
102
102
102
102
102
102
101
104
103
104
104
103
104
64
144
106
105
102
102
62
142
103
101
100
102
101
101
101
101
102
102
103
102
101
102
102
103
104
103
103
103
103
105
104
104
102
104
104
104
103
103
102
104
103
104
102
102
102
103
103
102
102
103
101
102
103
102
101
102
102
103
104
103
102
104
104
105
104
103
101
102
102
103
102
101
101
100
102
102
102
101
102
101
103
105
102
102
104
104
104
102
102
102
101
103
100
101
102
104
104
105
103
104
105
104
105
104
103
103
104
104
105
102
103
102
105
102
101
104
102
104
102
101
103
102
103
103
102
101
102
101
103
102
100
100
100
100
103
99
100
100
101
102
102
100
102
102
103
103
102
102
67
82
116
95
100
84
123
108
104
102
101
103
100
101
101
101
92
108
100
102
101
100
101
102
61
145
103
102
104
103
84
122
101
103
102
104
102
103
101
103
104
103
82
124
103
106
104
104
103
105
105
105
105
103
106
104
107
106
105
104
105
104
105
103
103
102
104
104
102
103
103
103
105
106
103
104
103
105
105
104
104
102
103
104
104
103
103
104
103
105
104
103
103
104
104
104
104
103
103
103
104
103
102
103
104
104
106
104
104
105
105
105
105
103
104
104
105
106
105
103
103
104
104
105
104
103
106
103
106
106
103
104
105
106
106
104
103
105
104
72
135
103
103
103
103
102
102
102
102
104
104
103
102
103
105
103
105
104
102
105
105
105
105
104
104
104
105
106
104
104
104
105
106
105
105
106
105
106
106
105
104
103
105
106
104
104
102
96
111
106
103
103
104
104
105
104
103
103
104
104
106
104
104
104
105
105
105
103
104
105
104
105
105
102
104
104
105
104
104
104
106
104
103
103
106
103
104
104
101
103
103
103
105
102
102
103
104
103
105
103
102
105
103
107
104
105
103
105
105
105
105
103
103
105
104
106
102
104
103
104
105
103
103
103
103
104
105
103
104
102
104
104
104
104
104
103
105
105
104
103
103
104
104
105
101
103
102
104
103
103
102
104
104
104
105
103
104
103
105
105
105
103
103
104
105
105
105
102
104
104
105
106
104
104
106
106
106
104
105
107
107
106
105
104
103
101
103
103
104
103
100
102
103
104
104
105
103
104
102
103
105
103
102
101
101
99
99
100
99
97
99
96
99
97
97
97
97
97
97
97
97
97
96
95
95
90
100
93
95
93
90
99
94
95
93
93
95
92
94
91
92
92
91
92
91
91
91
91
92
91
89
95
91
94
93
85
101
94
95
95
96
94
94
95
93
94
92
92
92
90
90
91
89
90
90
89
89
89
88
88
89
89
87
89
88
89
89
89
89
89
90
90
84
97
93
92
91
93
91
92
93
95
94
97
97
102
102
102
101
102
101
102
102
99
100
101
102
102
101
100
102
102
103
103
102
101
104
103
105
103
103
104
103
105
103
102
102
102
104
103
102
102
101
102
103
102
101
103
103
104
105
104
102
104
104
104
102
102
104
102
103
103
102
102
101
104
103
104
103
105
105
107
107
105
105
106
108
106
106
104
105
105
106
106
104
105
106
108
107
107
105
106
107
107
108
105
106
105
107
108
106
105
105
104
105
106
104
103
104
104
104
104
103
103
104
104
105
104
103
104
103
104
103
103
102
103
102
104
101
101
102
101
101
103
101
100
101
94
110
102
103
103
105
106
108
105
104
103
104
104
103
101
102
103
102
102
101
101
101
102
102
102
101
102
102
103
103
102
101
103
103
106
104
104
105
106
105
104
107
104
104
104
104
104
106
103
103
104
104
104
105
103
103
104
106
106
105
104
106
106
107
105
104
104
104
105
103
103
103
104
103
104
102
103
101
105
104
104
103
104
104
107
104
103
105
103
105
104
103
103
103
102
104
103
103
104
104
105
105
104
105
106
106
107
105
104
106
106
107
106
105
104
107
106
105
104
105
105
105
104
104
103
104
106
105
102
104
104
105
106
104
103
103
104
104
103
103
102
104
103
103
103
101
103
104
104
102
103
102
103
104
102
102
102
103
103
102
102
102
103
102
103
101
101
103
101
103
101
100
102
101
102
100
101
102
103
101
102
101
102
103
104
102
103
103
104
105
102
102
101
104
101
101
101
100
101
102
102
101
102
103
103
104
102
101
103
101
104
101
101
102
104
104
104
102
102
103
102
104
101
102
102
103
103
103
103
102
104
105
104
103
102
104
105
104
104
102
104
104
106
103
103
105
102
105
103
102
103
104
105
104
104
103
106
106
105
104
104
103
104
104
104
102
103
104
104
104
104
103
104
107
103
104
103
105
106
104
104
103
105
104
105
104
103
103
104
105
105
103
102
106
104
104
104
104
104
104
105
105
103
103
103
103
103
102
102
105
105
102
103
102
101
100
100
99
100
98
100
101
101
101
100
103
104
105
103
103
105
86
117
108
105
102
103
103
103
101
102
101
101
102
100
102
100
102
102
102
102
102
100
102
103
101
100
102
100
101
100
99
101
101
101
101
101
102
101
101
101
100
99
99
99
100
98
99
100
100
101
100
101
102
101
101
102
100
102
61
144
101
102
102
102
103
102
101
102
102
103
102
102
102
102
102
102
102
101
102
102
103
100
102
102
102
102
103
102
102
102
103
103
103
102
103
103
103
102
101
102
81
90
134
103
103
101
104
101
101
101
102
102
102
102
102
103
64
143
104
104
104
104
104
102
103
104
104
105
103
103
104
104
104
104
104
104
105
106
105
105
104
106
104
106
103
104
105
105
105
103
104
104
106
104
104
103
104
105
106
106
102
106
105
104
104
103
103
103
105
104
102
103
103
104
104
103
104
103
104
104
103
102
104
103
105
105
103
104
104
105
104
102
103
103
104
103
102
103
102
103
105
104
103
103
106
85
127
103
106
104
106
106
105
105
105
106
106
103
105
103
104
105
106
104
104
104
61
149
105
103
103
104
103
103
101
102
102
102
103
100
101
102
103
103
101
102
101
102
103
101
102
100
103
103
103
102
101
104
103
104
102
101
102
103
102
102
101
101
102
103
101
101
103
102
103
101
102
103
102
103
103
103
102
102
103
102
101
100
102
102
101
101
100
101
102
103
101
102
101
103
102
102
102
101
102
101
100
100
100
101
101
101
100
102
101
103
102
100
103
102
102
102
103
101
103
104
104
101
103
104
104
104
103
102
103
104
68
139
103
103
102
103
103
102
102
102
104
105
103
103
105
104
105
104
101
103
103
105
103
104
104
104
107
103
103
104
102
63
143
102
104
78
127
102
103
101
103
103
103
104
102
103
104
104
104
103
100
103
103
102
103
102
93
113
103
105
103
105
104
106
103
103
104
104
105
103
102
102
103
103
103
103
102
102
104
104
103
102
104
104
105
104
104
104
106
105
104
103
103
103
85
109
105
102
104
104
102
102
103
103
104
104
103
103
104
62
148
105
104
104
105
104
104
103
102
103
105
104
104
103
104
104
104
103
103
104
102
103
103
101
102
103
103
101
101
102
102
103
101
103
102
102
103
101
102
101
101
101
101
101
101
102
102
102
101
101
102
103
104
101
102
103
102
103
101
102
102
102
101
102
100
103
101
102
102
100
100
99
101
101
99
100
101
100
102
101
100
100
102
101
101
99
100
101
101
101
100
101
101
102
102
102
100
102
101
101
101
100
102
102
103
101
102
102
102
103
105
102
102
103
103
103
103
103
102
103
104
101
101
103
101
103
102
102
100
105
83
75
91
89
93
113
110
104
101
102
102
87
118
104
102
102
102
102
102
101
101
101
103
104
102
102
103
103
103
104
102
103
103
104
103
102
101
102
103
103
102
102
102
104
105
103
102
102
102
65
141
103
103
103
104
104
104
102
103
104
104
104
102
104
102
105
103
105
102
103
60
149
92
116
102
104
103
102
79
125
102
98
106
100
101
101
103
103
101
102
101
103
103
103
102
102
102
103
104
102
104
102
92
116
102
103
81
126
102
103
102
101
102
103
101
101
100
102
101
101
99
101
101
100
101
101
72
103
102
100
101
101
103
101
101
99
100
99
98
97
97
97
97
96
97
96
99
97
98
100
99
101
101
101
101
60
144
104
103
103
103
104
104
105
104
105
102
103
103
102
102
103
103
104
103
103
66
140
104
104
102
102
102
101
101
101
100
102
100
102
100
101
101
101
101
100
101
102
101
101
100
102
102
101
101
101
104
103
103
102
104
106
105
106
104
105
106
107
106
106
106
107
107
107
106
104
105
106
106
107
104
105
106
106
106
106
105
106
107
106
104
105
105
106
105
105
104
106
106
107
105
105
104
105
104
102
102
102
103
103
102
102
104
106
104
105
103
105
105
107
105
103
103
104
106
104
94
114
105
91
120
102
105
103
107
105
103
104
104
103
104
103
103
102
104
104
102
103
105
104
107
104
104
104
105
103
103
103
102
103
103
103
102
103
103
104
102
101
103
103
103
102
101
102
101
102
101
100
101
101
101
100
99
100
101
101
102
101
102
102
102
102
101
102
103
102
102
101
101
102
102
102
101
101
102
102
103
101
101
100
100
101
94
108
101
101
103
101
103
102
102
100
101
101
102
101
101
101
103
101
101
101
101
101
102
102
100
102
101
104
103
103
102
105
104
103
102
102
101
102
104
102
102
99
101
101
100
102
100
100
101
102
102
102
102
103
104
104
104
103
103
103
103
102
103
101
101
104
102
101
102
100
102
101
103
101
102
102
104
106
104
104
103
106
106
105
103
105
105
104
105
103
104
102
103
102
103
101
102
101
102
103
101
102
101
63
143
103
101
103
102
103
102
102
102
102
104
102
102
104
103
104
103
103
103
103
104
103
102
102
103
105
103
102
64
143
105
104
103
97
110
104
104
103
103
103
104
102
102
101
100
93
111
101
102
100
103
102
100
101
101
100
101
100
100
100
100
100
100
100
99
100
99
100
99
99
99
100
63
135
98
101
99
100
98
98
99
99
100
99
98
99
100
100
101
100
99
100
101
101
101
100
100
101
102
101
100
100
99
102
101
99
100
100
102
101
100
101
100
102
102
101
101
102
102
102
103
101
101
102
103
104
103
101
102
103
103
104
102
102
101
104
102
103
102
104
104
105
105
104
103
103
103
104
101
102
102
103
102
102
102
103
103
104
102
103
91
118
103
104
102
102
102
105
103
102
102
104
104
104
102
103
103
105
106
105
104
104
105
105
107
104
103
105
106
104
105
103
104
104
106
104
103
103
106
104
105
104
104
104
104
107
104
106
104
104
105
106
105
103
104
104
105
104
102
104
106
103
103
101
101
102
102
103
102
102
101
103
102
102
101
101
101
103
102
101
104
102
102
101
101
101
101
100
100
100
99
99
99
100
99
99
100
101
97
101
98
100
99
100
99
99
98
100
100
99
99
101
99
101
100
100
99
100
101
100
100
100
101
102
102
102
100
100
99
99
98
97
97
96
97
95
97
98
61
138
101
100
99
102
102
104
101
103
101
103
104
102
101
102
102
105
105
102
103
103
105
104
104
103
103
103
105
103
103
101
102
103
102
102
101
102
103
104
103
103
103
103
102
104
103
102
102
104
104
103
103
102
105
104
105
103
104
102
104
101
103
101
101
101
102
102
101
102
101
102
103
102
101
102
102
104
103
102
101
103
103
104
100
101
102
68
136
102
103
102
104
60
146
72
133
89
117
100
90
116
102
103
101
101
102
102
103
101
101
101
103
104
103
103
102
103
104
103
102
102
100
104
103
102
102
98
106
103
103
101
101
103
102
102
103
103
104
101
101
101
92
112
101
102
102
102
104
103
102
102
103
104
102
103
100
103
102
102
102
101
102
102
104
102
101
101
102
93
112
100
60
142
104
102
100
100
100
101
101
102
101
100
102
103
102
101
102
102
102
102
101
102
103
103
103
105
102
104
104
105
104
101
104
102
104
103
102
101
100
103
102
101
101
101
101
104
102
102
100
102
100
102
101
100
101
101
101
101
101
101
100
101
102
101
101
101
102
102
101
101
101
102
100
100
100
101
101
103
101
101
102
103
103
103
101
101
101
102
100
100
101
99
102
100
101
101
101
100
101
102
100
100
101
101
101
101
100
101
100
103
102
101
101
103
102
102
102
100
102
101
101
101
100
101
102
104
102
103
102
101
102
103
103
103
99
103
102
103
102
101
102
104
102
104
103
103
103
103
103
100
103
101
103
104
101
101
103
102
103
101
101
102
102
102
102
102
102
104
103
103
103
101
103
103
102
103
101
102
103
103
102
101
102
102
103
104
102
102
102
103
104
103
102
102
101
104
103
101
101
103
102
101
102
101
103
102
103
103
101
102
102
102
104
102
102
102
103
103
101
102
101
103
103
103
101
101
101
103
101
101
66
135
102
102
99
100
100
101
101
99
101
100
100
101
100
100
100
100
100
99
100
100
100
102
101
101
101
101
60
146
101
102
101
101
101
100
98
98
99
100
98
99
98
100
100
102
100
100
100
100
102
102
100
103
101
102
103
101
101
79
123
102
101
101
99
101
99
101
99
100
100
100
101
101
100
102
101
102
102
101
102
102
103
102
102
101
103
103
104
103
103
103
103
103
104
102
102
97
110
104
102
102
101
105
101
104
101
102
101
102
103
101
102
102
102
104
102
102
102
104
104
103
103
60
145
106
104
103
102
104
104
104
102
102
102
103
102
102
101
102
60
144
103
101
101
101
102
102
101
101
101
102
103
102
101
101
101
104
102
100
101
102
102
102
102
100
102
101
101
101
100
100
101
100
99
99
100
100
100
100
99
101
101
102
103
101
101
100
99
99
97
97
96
96
96
94
94
94
93
94
93
92
93
93
92
93
93
93
94
93
93
93
93
79
103
95
93
94
95
97
97
97
99
100
93
109
100
101
101
101
101
100
100
101
102
102
102
100
101
99
100
99
99
91
106
98
98
98
97
99
98
98
98
98
98
97
98
97
96
97
97
97
97
98
100
98
100
100
100
101
102
102
101
103
104
103
103
102
103
104
104
102
66
140
104
102
90
115
103
103
103
97
107
102
103
102
101
101
102
102
103
103
102
101
101
102
105
102
101
101
101
102
100
102
101
101
103
100
100
99
99
90
108
98
99
99
99
99
99
99
101
102
102
101
101
103
102
103
102
101
102
103
102
102
103
104
94
115
103
105
104
106
106
103
104
104
106
104
103
103
103
105
104
103
101
104
103
103
102
102
102
102
104
102
102
102
104
103
104
103
104
104
105
104
103
102
103
104
103
103
101
102
103
104
101
102
103
105
105
104
103
104
104
105
105
103
102
103
103
103
102
101
102
102
102
101
101
101
101
102
102
100
100
101
100
103
101
100
101
100
99
99
97
98
97
98
98
96
97
98
99
98
98
98
97
98
98
97
97
96
97
98
98
98
98
99
100
98
100
100
101
101
101
99
100
100
101
99
100
99
99
100
99
99
99
100
100
100
100
101
101
102
103
100
101
102
103
101
100
101
101
101
101
100
100
100
101
99
101
100
101
103
102
102
102
104
105
106
104
104
104
105
105
105
104
103
103
104
104
102
101
101
103
102
105
103
102
101
101
101
100
99
101
102
102
103
101
102
101
101
101
101
100
103
103
105
103
103
105
105
106
103
103
103
104
104
102
102
102
102
103
103
102
102
102
104
103
103
103
105
105
106
104
105
106
106
107
105
104
102
106
104
104
104
102
105
90
118
102
100
100
97
97
77
82
96
89
90
87
89
87
89
86
87
86
88
84
86
87
84
86
86
87
86
86
87
85
87
88
86
86
87
88
86
89
64
115
90
89
90
89
89
91
87
91
89
92
91
93
94
93
95
94
94
96
95
95
95
96
94
95
96
95
95
95
94
97
95
95
97
95
96
98
99
98
97
101
99
100
99
99
97
100
96
98
97
94
96
91
101
95
98
98
97
95
97
95
93
94
94
93
94
95
98
95
96
97
99
100
100
99
100
103
103
102
104
101
102
104
103
105
102
100
103
103
103
101
102
101
100
102
101
101
100
102
101
98
100
98
100
100
101
100
99
98
95
96
95
96
87
101
92
95
91
93
87
96
92
91
84
90
65
80
124
98
88
89
89
88
88
88
90
92
91
92
95
96
97
98
99
100
97
100
101
101
101
100
100
103
102
101
102
99
100
99
100
99
99
98
98
96
96
94
95
92
93
90
93
90
91
91
91
78
84
113
93
91
91
91
90
93
92
85
102
93
93
93
95
95
97
96
95
96
96
97
97
97
97
98
98
100
100
100
100
101
102
101
101
101
101
59
142
101
102
99
99
99
100
99
99
98
97
98
97
96
96
96
98
97
99
97
100
98
98
100
99
99
99
99
97
98
96
95
95
94
93
93
93
92
95
92
98
95
97
98
99
97
100
98
100
98
101
100
100
98
100
101
101
100
100
99
100
101
101
101
102
101
99
100
102
103
100
102
104
104
107
107
105
104
101
103
103
104
101
103
101
104
104
101
103
103
104
103
102
101
103
101
101
101
101
98
102
98
100
100
98
100
98
99
98
101
98
98
101
102
102
100
102
105
103
102
100
99
100
99
100
101
99
100
101
102
102
105
101
103
104
102
101
102
102
91
114
102
102
101
102
102
103
100
102
100
100
102
102
101
101
64
138
100
100
98
98
99
98
93
91
84
84
84
87
80
84
82
84
84
83
86
87
87
91
90
92
94
92
95
94
96
95
95
96
95
95
96
96
97
98
97
96
96
97
97
98
98
96
97
98
98
96
96
96
96
97
97
97
101
92
94
94
95
95
100
90
95
93
95
100
89
94
94
95
101
95
91
96
96
99
97
98
98
98
100
99
99
98
99
101
101
104
102
100
101
94
109
98
100
97
97
102
98
101
100
101
100
101
102
99
100
100
102
101
101
102
99
101
99
99
98
97
95
96
94
90
97
94
95
95
97
95
97
99
99
100
99
98
99
101
102
99
98
98
98
89
111
99
99
100
100
101
102
100
103
101
104
104
104
103
105
106
107
105
103
103
103
104
106
103
103
103
