105
105
103
105
106
104
106
104
102
98
103
102
104
106
99
106
106
102
107
106
106
103
109
109
109
109
100
108
113
111
111
109
108
108
105
103
105
105
100
104
103
102
103
102
102
100
98
96
100
103
103
101
98
103
106
107
106
103
100
97
99
103
103
107
107
107
102
110
109
111
110
105
107
112
111
111
106
110
110
112
104
112
111
111
106
105
108
109
109
104
104
107
108
109
101
104
84
132
102
102
105
105
103
101
104
106
102
102
105
106
101
104
103
103
99
105
103
100
105
105
102
102
104
105
106
101
105
106
104
104
59
98
100
101
102
99
103
103
104
100
102
104
106
94
92
92
90
93
93
83
84
85
82
81
82
83
82
82
82
84
82
80
81
82
81
83
84
83
84
84
85
86
87
88
89
88
90
89
90
90
90
90
89
89
88
90
90
90
91
88
90
88
87
88
86
88
88
86
87
88
87
88
87
89
89
90
89
59
123
89
87
87
87
87
86
85
87
87
85
87
85
57
86
85
85
85
85
116
86
85
83
82
73
90
82
85
85
88
91
91
91
92
91
93
90
93
94
92
93
96
96
96
93
97
97
96
95
94
95
92
94
94
95
92
96
96
97
98
96
95
91
93
92
92
93
91
91
89
92
91
92
93
92
92
91
89
88
90
59
122
87
89
89
89
90
92
92
92
92
92
94
92
90
94
91
91
92
91
92
90
92
92
91
93
92
90
92
91
91
93
91
92
92
89
90
92
91
87
92
91
95
93
92
92
92
93
91
92
89
88
89
87
87
86
88
89
88
89
88
89
87
87
90
89
90
90
90
91
89
90
91
88
91
90
88
91
90
91
92
91
90
91
90
94
90
89
86
87
89
87
87
86
88
87
87
87
89
88
89
92
86
93
92
89
90
91
93
91
90
89
86
86
86
58
119
86
95
93
90
87
90
86
83
83
86
86
85
84
84
83
81
82
80
82
82
79
81
79
79
79
80
81
81
83
81
83
83
83
83
83
83
57
113
80
80
82
80
79
81
80
81
82
57
105
78
81
79
79
79
80
78
79
80
80
79
82
82
81
83
83
83
84
81
79
78
78
78
76
79
77
79
79
80
79
80
79
79
82
81
78
83
81
82
82
81
82
84
80
84
82
80
82
81
80
79
80
78
81
80
81
80
84
83
85
86
87
64
109
86
85
86
85
84
88
55
122
88
92
56
126
86
88
89
86
55
121
84
84
82
84
86
84
58
114
84
85
83
84
82
83
83
83
83
84
84
85
86
84
86
85
84
83
86
86
84
86
86
84
87
86
88
87
88
86
87
92
91
92
90
92
91
92
91
91
90
93
92
91
94
92
90
91
88
88
85
59
118
86
88
60
120
88
89
60
125
89
90
92
93
56
124
94
96
96
97
95
94
92
91
85
81
83
84
83
84
85
85
86
89
89
88
92
93
93
95
92
96
94
94
90
94
93
94
94
92
96
94
95
95
96
97
97
97
97
97
98
95
95
94
92
92
90
91
90
94
94
95
94
97
96
95
94
99
97
95
99
98
97
96
100
101
100
101
102
104
100
102
103
98
102
103
102
101
104
105
102
105
105
103
103
99
97
96
95
97
96
96
99
100
101
100
101
98
97
96
94
93
93
92
92
91
93
92
90
92
92
89
93
91
90
91
91
89
90
91
83
99
90
92
92
91
91
89
88
90
88
89
89
89
87
89
89
90
89
88
89
92
90
88
90
91
89
88
88
90
88
87
87
88
88
88
87
88
90
87
88
88
86
87
86
84
85
84
83
83
84
82
83
84
84
84
84
85
83
83
84
82
82
84
81
85
83
83
82
83
85
86
86
85
86
85
86
86
88
86
85
87
86
85
86
61
113
83
83
81
85
82
54
105
80
81
80
79
79
80
81
82
82
85
84
84
85
84
83
83
81
84
81
81
83
80
80
79
78
79
78
79
77
78
78
76
77
77
75
75
75
75
73
76
75
72
75
74
73
74
72
73
74
73
71
73
72
70
72
70
71
72
75
72
73
75
75
75
75
76
76
75
75
74
77
75
75
74
76
74
74
76
76
76
76
78
78
78
76
77
77
77
77
76
77
77
76
76
77
76
76
75
76
75
76
74
74
74
73
74
74
75
75
76
76
76
78
63
97
78
79
80
77
79
79
78
79
81
79
78
49
107
76
76
74
75
75
77
75
76
76
76
77
76
76
65
73
95
78
78
75
81
79
78
78
78
78
78
78
78
72
82
78
77
77
76
77
76
77
76
76
76
75
75
75
74
75
73
73
74
73
73
72
72
71
72
73
71
49
97
73
73
75
74
75
75
78
76
76
77
76
76
55
101
74
73
73
73
72
72
71
70
69
70
69
71
70
70
57
94
76
74
74
74
82
70
81
77
72
79
76
76
75
76
75
75
76
76
75
75
76
74
75
76
74
75
73
75
73
73
73
72
73
71
71
70
70
71
71
70
71
70
72
72
73
71
72
73
73
72
72
72
71
73
73
72
74
75
75
75
75
74
77
72
74
78
73
72
77
75
72
74
74
75
72
73
73
73
72
73
72
72
73
72
72
72
71
71
71
70
71
70
70
69
69
69
68
68
68
68
68
68
68
69
68
69
71
68
72
70
71
72
71
73
72
72
73
72
71
71
71
72
71
71
73
72
71
72
70
72
71
72
71
72
74
71
71
71
71
71
72
70
71
71
71
71
70
70
71
69
69
69
70
68
68
68
68
69
68
69
68
69
66
68
68
67
67
67
68
67
66
66
67
66
68
66
67
67
68
66
68
67
66
66
67
66
66
67
65
67
67
66
67
66
65
67
66
66
67
65
66
67
66
65
65
66
65
64
66
65
66
58
66
60
75
67
69
68
69
67
68
69
67
68
68
70
68
57
82
70
69
71
68
70
70
69
68
69
68
60
79
70
70
69
69
70
70
69
69
71
62
77
71
70
69
70
70
69
71
70
70
52
91
70
71
70
71
71
69
71
72
70
70
71
71
71
71
70
70
71
69
70
70
70
70
69
69
68
68
67
68
67
70
69
70
70
69
70
54
89
73
69
45
94
70
70
71
72
70
73
72
73
73
76
74
60
87
75
72
75
73
71
73
72
74
73
72
73
71
72
71
72
72
73
72
71
72
72
71
71
73
70
72
71
71
72
69
71
72
69
70
70
70
71
69
70
68
70
69
68
69
68
69
69
67
69
67
68
67
68
67
67
68
67
68
67
68
68
68
68
69
70
61
77
69
69
69
69
69
68
69
69
69
71
68
69
68
69
68
68
67
68
68
68
68
68
68
69
68
68
70
69
69
69
71
68
69
72
69
70
71
70
71
71
70
71
71
70
72
71
70
54
87
71
71
70
69
68
69
68
68
70
68
73
71
72
56
51
104
73
70
69
69
54
83
69
68
68
60
77
67
68
67
67
67
67
68
67
68
50
86
60
76
67
67
67
67
67
54
77
66
67
65
66
68
66
67
68
51
84
68
69
67
68
69
67
68
69
68
68
69
48
89
71
69
70
69
69
70
68
69
52
87
70
70
69
70
68
70
70
67
46
93
71
69
69
70
69
71
53
87
71
72
70
70
73
70
71
72
72
74
70
72
74
71
72
73
73
71
56
89
71
71
71
72
70
71
72
71
70
71
71
70
70
70
69
69
69
69
70
69
70
70
60
79
71
129
54
51
83
72
72
70
70
70
69
70
69
71
70
71
71
70
69
72
71
69
70
70
70
69
70
70
69
70
70
70
69
70
69
69
70
69
63
77
71
68
70
70
70
71
69
71
71
69
70
70
71
70
69
70
67
69
71
70
69
71
69
70
72
71
70
72
72
70
72
73
70
73
73
70
75
70
73
72
73
73
71
73
73
71
72
72
73
75
71
73
72
73
74
72
73
73
73
72
71
74
71
72
72
70
71
70
70
72
71
72
73
70
73
73
72
71
74
73
72
74
73
75
72
73
73
73
75
70
74
74
72
73
74
71
72
72
73
72
71
73
72
57
86
74
63
81
72
74
71
72
73
73
72
72
74
72
74
61
86
74
59
86
75
70
75
73
61
85
74
73
71
72
74
73
72
75
71
74
76
70
75
74
71
73
71
72
71
71
51
91
71
72
73
71
60
84
73
71
73
71
57
88
74
70
74
71
72
72
59
85
86
63
46
96
72
71
72
71
72
70
74
69
73
73
71
63
58
95
74
71
74
73
71
73
73
71
49
95
74
71
71
71
71
71
73
72
71
72
75
71
72
71
79
50
91
79
73
50
94
78
72
73
74
60
83
69
81
73
73
71
72
75
72
72
71
72
72
73
73
71
75
63
84
74
71
72
72
72
72
71
72
73
71
71
70
72
71
71
70
71
72
71
72
72
71
71
75
53
91
76
73
74
72
73
80
63
74
73
72
72
74
72
72
74
73
71
74
72
73
71
74
72
72
73
72
73
73
72
75
69
55
87
74
71
72
72
72
72
73
72
74
71
74
73
71
74
75
72
71
57
92
77
75
72
74
77
73
74
74
74
73
74
74
73
56
92
77
71
76
63
83
74
74
71
73
71
70
71
72
71
73
72
71
74
73
72
74
72
72
75
73
73
74
73
72
73
57
90
74
74
72
72
55
90
74
72
74
71
71
72
72
71
72
69
72
72
70
71
53
88
56
83
67
70
68
69
70
70
69
56
84
71
60
79
72
68
70
70
70
69
71
59
80
71
69
70
70
70
69
69
71
70
69
70
70
70
68
69
69
68
68
70
60
78
70
70
70
69
68
71
69
70
70
70
69
71
71
70
71
72
71
70
72
73
71
73
73
72
71
73
73
72
74
72
72
73
73
72
74
74
72
75
74
73
73
76
73
74
75
75
74
75
76
76
75
48
102
77
77
77
75
77
77
78
75
76
78
78
77
77
76
76
58
96
78
77
52
101
79
77
51
66
50
53
52
54
53
54
53
54
56
53
55
56
54
58
55
53
54
57
56
57
58
54
57
55
55
56
54
54
54
54
57
55
55
62
57
55
100
56
117
84
84
80
79
78
77
77
75
75
76
77
75
76
76
77
74
76
75
75
74
77
76
75
76
75
75
76
75
77
74
76
75
74
75
74
75
73
72
77
74
75
74
78
77
75
75
77
75
77
62
92
79
81
79
80
80
80
79
80
80
78
78
80
79
78
78
80
78
79
79
78
79
79
77
79
80
78
78
79
79
77
79
78
79
78
77
79
78
73
85
78
78
81
79
79
80
53
105
79
78
79
54
103
81
79
78
78
53
103
80
78
59
63
111
80
80
80
78
78
59
99
81
78
53
105
80
77
54
101
80
76
53
100
79
77
78
78
55
103
81
79
78
79
77
79
79
79
54
75
76
77
77
76
77
76
76
76
77
76
78
78
80
78
80
80
81
79
80
81
81
80
82
83
80
82
84
53
44
57
52
58
53
57
57
58
58
54
58
54
61
53
54
53
54
57
58
58
61
54
59
58
60
60
55
62
59
124
58
142
93
91
89
85
85
86
57
113
89
87
54
117
68
107
88
56
114
75
97
85
85
85
83
85
86
87
87
85
86
87
88
86
87
55
68
60
54
54
54
51
50
48
52
53
57
119
95
91
86
86
87
83
84
85
85
82
83
85
86
82
86
85
83
86
86
83
85
85
82
85
82
82
83
80
79
80
81
77
76
75
76
76
76
77
75
79
80
81
78
80
81
83
84
85
80
83
86
83
81
83
85
87
84
83
88
87
87
84
88
89
85
85
86
88
87
83
86
87
85
86
87
89
85
88
91
88
86
89
91
85
88
88
89
85
87
89
89
85
88
90
87
87
87
91
87
87
89
86
88
89
85
88
89
85
88
89
91
86
90
91
92
86
90
92
55
42
55
49
63
58
58
57
59
63
56
74
49
60
59
63
61
70
52
62
57
66
59
73
52
61
60
67
59
69
54
65
60
135
107
102
99
95
98
96
93
95
93
93
91
88
85
89
84
86
89
91
87
90
91
95
89
92
94
92
89
92
94
90
93
93
88
91
93
90
89
90
91
92
94
90
89
91
91
92
94
88
90
92
93
93
88
93
94
93
88
93
94
96
90
90
89
90
85
87
89
91
88
90
92
91
91
91
93
93
94
89
95
94
93
88
94
93
96
93
94
95
93
95
95
93
92
92
95
96
97
96
95
97
98
96
96
98
99
98
96
98
101
99
98
99
101
96
98
100
99
96
100
101
96
99
101
98
96
99
99
93
98
98
95
95
98
97
93
97
97
93
96
95
94
95
98
95
92
93
90
90
93
92
88
92
88
91
92
93
95
91
93
94
95
97
94
95
96
95
93
93
94
95
93
94
95
96
94
95
97
94
94
94
95
93
93
93
94
91
92
93
90
92
94
92
92
93
91
91
92
92
93
92
93
94
92
93
93
95
93
94
93
95
93
93
94
95
93
93
96
94
94
95
93
93
92
90
90
91
87
91
94
93
91
96
97
95
94
95
96
93
95
98
91
95
98
90
94
94
88
90
92
88
89
90
91
92
87
86
85
86
88
87
88
88
87
88
87
89
86
84
88
89
89
85
90
90
92
90
91
93
92
90
91
93
93
90
92
94
93
92
92
91
88
88
89
92
91
88
91
93
96
98
97
94
91
96
97
97
96
99
92
96
96
99
97
94
95
97
97
93
94
96
97
96
91
93
93
97
95
90
94
96
96
98
93
90
94
94
94
97
95
92
94
96
95
96
98
99
92
96
95
99
97
92
96
95
97
90
94
94
96
93
93
94
96
92
91
93
94
92
90
92
94
92
91
93
94
93
92
94
95
91
94
95
96
90
94
97
96
93
96
98
96
94
96
96
93
96
95
93
93
89
89
87
87
90
92
91
89
93
88
89
90
90
85
90
89
90
86
84
85
85
83
84
86
83
86
87
85
87
86
85
85
85
84
84
83
81
81
82
81
82
80
80
82
82
81
83
82
81
82
82
82
82
82
81
80
80
82
80
79
79
80
78
80
80
80
79
78
79
78
77
76
78
78
76
75
76
76
77
73
77
76
74
77
77
76
74
76
75
76
73
75
74
72
75
73
72
71
73
73
71
69
72
71
69
61
78
68
68
68
69
68
67
67
68
66
67
67
68
68
67
68
70
69
69
70
70
70
69
70
70
71
71
70
69
70
71
70
71
70
73
72
71
73
73
73
73
73
73
73
73
73
72
75
72
73
73
74
74
70
76
73
73
73
74
74
49
97
72
73
72
71
71
72
69
71
71
71
70
69
69
69
70
68
67
68
69
68
47
89
67
68
68
67
66
67
66
67
67
66
67
67
67
67
67
67
66
66
67
64
67
66
64
64
64
66
63
65
64
65
63
64
65
64
63
64
65
64
63
64
65
64
64
63
62
62
64
63
62
62
62
62
63
62
63
62
63
64
62
63
64
61
64
62
63
63
63
62
64
62
62
63
62
62
63
62
62
63
63
62
63
62
62
62
63
61
63
61
62
63
62
62
62
63
62
63
63
63
63
63
63
63
64
64
63
64
63
64
64
64
64
64
64
65
64
65
65
64
65
44
85
65
66
64
66
65
65
65
65
65
65
66
65
66
66
65
66
44
85
68
66
66
66
54
77
58
74
66
65
46
59
84
68
67
66
67
65
66
66
65
56
76
53
80
66
66
65
65
66
65
46
84
66
65
66
66
66
66
48
82
66
65
65
64
44
84
66
65
65
65
66
65
65
66
44
86
68
66
64
67
67
66
66
67
47
84
69
66
67
66
45
88
68
67
65
57
58
88
68
68
68
57
71
75
63
74
69
61
74
70
68
68
70
68
49
86
72
69
55
58
95
73
69
71
70
69
71
69
71
72
70
71
70
71
70
70
71
70
70
72
69
72
69
70
70
70
70
70
68
68
58
82
70
69
72
68
70
51
88
72
70
70
70
71
71
48
88
75
69
72
70
72
71
70
72
72
69
71
73
71
51
90
73
70
73
70
70
53
88
73
70
71
70
70
72
68
70
68
71
69
70
71
70
71
73
70
72
72
72
71
73
71
72
72
78
66
75
71
73
72
72
73
71
72
74
72
71
73
72
57
84
74
73
73
73
72
72
73
72
72
74
72
73
74
72
72
75
72
73
74
72
73
72
72
73
72
73
74
73
73
74
73
72
75
71
73
74
72
74
72
61
84
74
73
74
74
72
73
73
73
75
72
74
75
73
74
75
74
73
62
86
76
75
75
73
74
54
92
76
74
53
92
75
72
52
93
73
72
52
91
75
71
53
90
74
74
56
87
75
73
51
92
75
72
52
92
75
72
72
74
53
90
76
53
89
74
74
53
91
75
73
72
72
57
88
75
72
53
91
74
73
52
90
74
72
73
70
73
71
71
72
71
72
74
73
73
74
74
75
74
74
75
76
73
75
55
65
46
48
51
50
48
50
52
52
51
59
47
55
55
59
52
59
55
57
55
56
56
55
57
56
55
58
54
53
55
54
54
53
54
52
53
52
53
54
55
55
55
55
53
57
55
53
58
53
55
55
60
55
56
57
57
58
58
55
56
59
57
54
59
57
60
55
59
54
58
54
55
55
57
54
55
55
54
53
51
52
52
53
53
53
58
54
55
55
58
56
57
57
59
59
54
107
88
84
81
53
67
52
49
57
53
52
53
55
48
62
58
57
56
58
58
60
58
51
69
58
52
60
57
57
56
57
58
60
59
58
61
59
62
57
59
58
58
60
60
56
57
58
49
64
56
56
56
57
56
56
57
57
59
56
55
60
58
57
57
57
58
58
51
117
89
52
111
82
78
76
76
76
58
62
51
51
50
51
52
53
53
53
55
104
82
79
76
77
77
76
50
100
79
76
76
76
75
75
75
76
75
75
77
76
75
63
89
78
76
56
64
51
51
49
51
53
54
54
55
58
54
111
93
90
95
86
78
83
80
78
78
51
106
80
80
78
51
102
81
79
76
77
52
99
79
79
51
98
79
75
53
98
76
76
51
98
77
75
77
76
75
76
76
53
99
78
75
57
94
77
76
54
96
77
77
58
92
77
76
53
95
76
74
54
95
75
74
56
93
79
75
53
99
78
76
55
98
78
78
53
100
80
77
78
78
58
96
79
79
58
98
78
79
58
94
78
77
55
96
80
77
54
101
79
76
78
76
76
77
79
75
78
77
78
79
78
78
79
80
81
79
80
81
59
99
83
82
54
106
84
80
80
53
102
98
86
81
80
78
78
78
77
81
76
77
77
78
77
79
76
77
78
78
76
76
78
80
78
56
97
99
100
92
90
88
83
81
81
83
80
78
80
80
81
57
103
107
107
93
92
88
94
88
81
91
89
86
86
88
89
87
88
89
88
87
89
90
89
89
87
89
87
86
86
77
79
80
79
81
56
103
110
108
92
93
92
91
81
91
88
87
86
86
86
86
87
84
85
58
103
89
82
83
75
78
76
78
76
75
77
77
74
76
76
84
78
78
81
72
82
78
79
71
83
77
77
78
77
72
82
78
77
78
60
99
80
79
80
73
81
78
76
73
56
96
83
76
74
78
77
75
75
75
82
73
74
77
76
76
75
76
85
77
72
84
78
74
80
78
74
81
75
74
83
80
73
84
82
80
79
79
80
81
79
75
84
81
79
80
81
75
81
74
86
79
80
81
81
79
80
81
79
81
58
97
85
82
57
102
83
82
82
79
77
83
82
82
81
59
106
87
82
53
113
85
82
53
110
82
81
53
109
82
80
82
54
108
84
81
54
104
84
78
54
108
83
81
82
55
109
85
82
80
83
58
107
84
86
82
83
82
80
75
78
78
77
80
60
93
80
79
78
78
56
99
78
78
54
99
78
74
75
79
76
76
77
79
77
79
81
77
80
56
104
82
79
55
103
80
79
54
101
80
77
76
77
78
77
79
80
79
80
80
79
81
79
78
79
78
80
78
80
80
79
77
78
75
74
73
73
73
74
76
75
74
57
98
77
75
78
55
95
81
75
77
56
95
80
75
78
76
77
76
76
78
76
76
56
98
77
76
76
75
75
75
75
77
78
78
77
78
79
80
78
79
82
78
81
78
80
79
79
79
78
80
79
78
80
80
82
81
81
81
82
83
81
83
85
82
85
55
111
86
86
82
84
85
84
84
86
81
84
55
107
84
82
81
83
83
82
85
84
87
84
88
86
84
85
87
82
84
84
85
86
86
86
85
88
88
84
88
86
83
84
86
81
84
85
83
84
55
110
86
84
83
82
84
83
83
85
81
83
82
82
83
82
86
81
84
83
82
82
83
83
81
83
82
84
81
82
87
54
116
89
85
84
84
82
83
83
83
80
55
107
82
80
57
99
80
78
79
78
81
78
79
80
59
102
82
81
80
80
81
79
80
79
78
79
77
79
81
78
81
82
83
81
82
57
107
84
81
79
80
81
78
81
80
80
81
83
56
103
84
80
80
78
78
80
78
79
81
78
80
79
80
79
79
79
78
55
102
79
78
78
76
75
76
75
77
77
77
78
80
80
84
81
60
105
83
82
56
109
86
83
81
83
82
83
83
57
110
87
85
81
83
83
56
109
85
82
85
57
106
85
80
81
81
80
82
81
80
80
81
84
80
83
85
82
84
59
105
85
84
82
82
81
82
81
80
83
80
82
57
107
82
81
58
108
82
82
84
81
82
83
83
81
85
81
84
80
83
84
81
83
84
82
85
84
82
83
82
86
80
84
83
85
60
103
85
82
81
82
82
83
80
82
82
82
84
81
81
80
81
81
80
79
81
81
81
82
81
83
85
82
84
83
85
83
83
86
85
82
84
85
82
84
56
106
84
80
81
80
79
79
57
103
79
79
78
79
79
79
81
80
56
76
94
79
79
79
52
96
74
76
74
74
76
77
75
79
79
80
78
82
80
80
80
81
81
79
80
81
82
79
81
82
81
80
82
83
81
82
81
80
81
61
100
82
80
59
100
81
76
79
77
77
79
78
77
78
79
79
78
81
80
78
79
81
80
81
80
79
79
81
80
78
82
80
82
81
82
82
82
82
80
82
80
81
81
82
83
81
79
79
78
77
77
76
77
76
76
76
75
77
76
78
76
78
78
79
80
59
100
79
78
80
77
78
79
78
79
80
83
80
81
80
78
79
79
80
78
80
80
79
79
80
76
77
78
77
78
79
77
77
78
77
79
76
75
79
76
78
58
98
76
78
79
78
77
80
80
81
81
81
82
81
83
57
104
82
81
55
107
83
79
81
78
79
76
78
76
81
79
81
81
72
94
82
83
49
109
82
54
115
81
80
82
81
80
82
84
84
61
107
85
84
54
114
85
84
83
81
82
83
83
81
84
85
83
82
82
82
82
79
81
81
58
104
84
87
86
86
87
83
86
84
83
82
82
82
82
83
58
105
84
82
80
80
81
79
81
81
80
81
80
81
80
81
81
80
81
80
79
81
81
81
81
80
80
80
80
79
81
80
82
80
80
79
82
78
82
81
81
81
82
79
82
78
80
77
81
79
77
79
79
79
79
80
57
106
82
80
81
79
80
80
55
104
82
80
80
80
79
81
55
103
83
78
79
77
79
79
80
80
81
81
55
106
84
81
80
82
54
106
81
81
79
81
81
81
79
83
81
82
82
83
84
82
82
60
107
87
82
85
81
82
83
82
81
82
81
83
63
102
86
84
56
108
84
83
82
81
83
83
82
86
87
84
88
85
89
87
84
89
84
87
82
83
84
83
83
85
80
82
80
81
81
81
80
82
79
81
78
82
83
82
82
83
83
83
83
82
83
56
109
83
67
47
46
49
51
50
50
52
53
54
53
55
57
54
104
87
89
86
88
58
117
85
84
61
107
82
83
83
83
84
85
84
60
111
87
57
113
85
58
109
82
81
81
80
83
83
54
114
85
83
82
83
60
105
83
82
81
81
83
85
86
59
113
88
85
88
58
110
87
86
57
110
87
86
83
85
84
84
83
83
83
85
86
84
85
86
59
110
89
84
85
83
82
81
80
80
83
82
84
84
85
84
83
84
83
82
81
80
79
80
81
80
81
81
83
83
83
85
85
86
85
86
85
84
85
85
86
83
87
87
85
85
87
88
85
87
88
88
84
87
88
87
87
85
57
112
87
84
84
79
81
79
80
81
80
58
99
76
79
76
77
75
79
75
78
79
81
82
85
84
86
84
84
84
82
82
79
83
81
81
81
81
79
81
77
81
79
76
81
79
81
78
81
84
87
85
85
84
85
84
85
84
85
83
83
83
84
83
83
82
83
83
60
104
84
82
82
81
80
57
100
76
77
77
78
79
81
80
83
84
84
84
82
83
54
111
84
83
83
84
81
83
84
54
110
85
85
83
83
83
85
83
57
107
84
83
81
82
79
81
80
79
76
77
76
75
75
74
74
74
74
73
73
71
73
69
72
73
71
73
72
73
74
73
73
73
72
74
74
75
74
75
75
73
76
75
74
76
75
75
75
76
75
77
77
76
77
78
77
78
78
79
77
80
81
79
80
81
79
80
78
78
79
79
76
78
76
77
75
78
79
80
81
80
82
83
82
84
55
114
83
83
83
83
54
111
81
81
80
81
80
81
82
80
83
81
82
80
80
81
80
80
56
105
77
78
76
77
77
76
77
75
76
77
77
78
76
81
80
57
108
82
82
81
82
83
83
82
84
84
84
83
83
83
58
108
85
82
81
82
82
82
58
109
83
82
84
57
112
82
84
83
83
83
83
84
84
85
85
85
84
85
55
113
87
84
56
111
85
83
81
82
82
82
84
83
83
57
110
87
84
84
83
83
83
84
84
83
85
84
84
83
84
85
55
109
85
82
80
82
80
80
79
80
79
80
81
80
81
82
80
80
80
82
80
80
82
79
83
79
82
82
82
83
82
83
84
83
82
85
83
56
108
86
83
82
81
81
81
81
82
83
84
83
83
84
84
84
83
83
84
84
56
111
86
85
83
82
86
87
87
56
112
86
84
63
102
83
82
83
81
82
81
83
81
82
82
81
81
80
81
81
56
108
81
83
82
82
82
82
83
57
108
84
84
83
82
82
83
83
82
82
84
83
82
83
84
84
56
108
85
80
78
77
78
77
77
78
78
78
77
78
77
77
76
77
76
76
75
75
75
74
75
74
75
74
77
75
76
77
77
77
76
78
77
78
78
78
80
80
79
80
79
78
77
77
79
75
78
76
75
77
75
76
77
76
76
76
78
78
77
78
77
79
77
77
78
80
79
78
77
81
79
77
80
77
80
80
80
81
81
82
82
81
80
80
80
78
79
79
78
79
78
80
81
80
54
109
81
82
80
79
82
55
106
79
78
78
78
75
75
75
75
77
77
78
77
78
77
77
76
77
76
76
76
77
76
77
76
77
77
76
76
77
74
76
75
75
75
76
75
75
76
76
75
76
77
75
77
75
76
76
77
75
77
77
75
78
76
76
78
76
76
77
76
76
77
76
75
78
77
75
77
76
75
76
76
74
75
74
82
65
72
73
70
71
71
70
70
71
70
71
71
69
72
72
71
72
73
73
72
75
75
75
75
78
75
76
75
75
76
76
89
81
82
82
79
81
80
81
82
52
105
82
75
76
73
74
73
73
74
72
72
72
70
62
79
71
71
70
72
70
71
72
71
70
75
75
74
76
76
77
74
75
78
73
73
72
73
73
71
72
71
71
70
71
71
72
70
71
71
71
72
71
72
73
72
73
74
73
74
73
74
74
73
73
73
73
72
72
72
71
73
72
72
71
72
72
72
72
73
71
72
72
72
71
70
71
68
70
70
71
71
71
71
72
72
71
72
72
73
72
72
73
72
72
73
73
71
74
77
75
74
74
73
72
72
72
72
70
69
51
88
68
70
69
69
70
70
70
71
71
73
72
72
73
73
72
73
73
71
73
71
72
71
71
71
70
71
71
71
71
72
71
71
71
71
71
71
71
70
71
70
70
71
70
70
69
71
69
70
70
70
70
70
48
90
69
71
69
69
68
69
68
68
68
68
68
69
69
67
69
70
68
69
69
69
68
68
69
68
68
69
68
68
67
68
68
67
49
87
67
67
68
68
66
68
67
67
67
68
67
67
67
67
68
68
66
73
40
88
66
68
66
68
67
68
47
87
68
68
67
69
48
87
67
50
87
67
68
67
52
83
68
68
68
68
47
89
68
68
69
68
50
84
49
83
66
67
65
65
66
55
75
64
65
65
65
64
60
68
64
62
65
71
55
64
65
63
64
63
63
63
63
63
62
63
62
61
61
62
60
61
60
61
48
71
60
59
60
60
60
60
60
61
60
60
61
61
61
61
61
62
62
61
63
63
58
66
63
62
64
49
76
51
75
46
80
62
64
62
64
58
67
65
64
64
52
79
65
66
66
67
67
67
68
68
66
68
66
67
68
67
67
69
67
69
68
68
69
70
68
69
71
68
70
70
49
85
71
69
69
69
70
68
68
71
68
69
71
69
69
71
70
45
46
53
48
51
52
54
54
53
55
56
57
54
56
57
55
55
56
56
46
108
86
78
53
96
77
73
46
42
50
47
48
48
50
50
51
49
51
51
52
51
51
53
51
52
52
52
50
50
51
51
49
50
50
47
49
48
47
47
47
48
46
47
47
47
46
47
48
47
47
46
47
47
46
47
46
46
45
47
46
47
48
47
46
46
46
47
47
47
47
47
46
48
48
49
51
47
51
48
50
49
50
51
48
52
52
50
54
52
50
57
52
90
77
73
71
72
48
72
71
70
69
71
70
50
89
71
70
71
57
81
71
72
70
71
69
69
72
69
71
70
73
70
71
73
71
50
93
73
72
71
73
71
72
72
71
72
73
71
71
73
72
71
73
72
72
73
74
72
73
73
50
94
74
73
73
73
74
75
72
73
74
73
73
74
73
75
74
74
73
74
74
73
73
75
72
74
75
74
73
73
76
72
77
72
76
74
64
84
75
73
74
70
75
52
92
74
71
74
51
91
50
92
75
71
72
72
58
86
72
72
73
72
72
72
72
71
71
71
72
73
71
73
73
74
72
71
72
71
70
72
70
72
72
71
73
71
71
73
70
72
71
72
71
73
71
72
71
65
79
72
72
71
72
72
72
72
72
71
73
71
56
84
73
71
71
71
71
71
70
73
70
70
72
72
69
71
72
70
71
72
69
71
71
72
70
71
71
70
72
70
72
69
71
68
67
69
68
63
70
70
69
69
70
69
71
70
72
72
71
72
72
72
72
71
73
71
72
53
90
73
73
73
72
72
73
73
73
72
74
73
73
74
74
73
73
73
75
74
74
73
75
74
75
74
75
74
74
74
76
74
73
74
75
74
73
75
74
74
76
73
74
74
74
73
74
76
74
73
73
73
72
72
75
73
54
91
76
74
73
75
53
92
75
75
71
74
72
74
72
73
73
73
73
74
74
74
73
74
73
73
74
72
74
74
72
74
74
74
74
75
74
74
74
75
75
74
73
75
76
73
74
75
73
74
75
74
74
73
74
55
91
79
74
75
73
75
74
74
55
93
75
74
74
73
65
80
74
74
73
48
95
82
61
85
82
61
82
79
53
91
73
71
74
71
71
74
71
71
72
73
72
73
73
72
72
75
73
74
75
74
73
74
76
73
74
73
75
75
74
75
73
73
80
69
74
74
73
72
72
74
71
72
58
88
78
73
72
73
72
72
73
73
71
73
72
71
72
72
72
73
72
73
73
71
72
72
72
72
73
72
72
72
73
73
72
73
73
71
72
74
71
72
71
72
72
71
71
72
71
72
69
75
71
79
65
72
72
72
73
71
71
72
72
71
54
72
72
72
72
71
79
64
72
72
71
72
72
71
71
71
70
70
72
70
71
69
71
70
70
70
70
72
70
72
71
70
73
71
72
71
71
71
73
72
71
73
72
74
74
73
73
75
74
76
74
75
80
73
74
75
75
75
75
77
75
75
75
79
71
73
73
72
72
72
74
73
75
73
76
74
73
72
73
72
73
71
73
72
71
72
72
72
72
71
71
70
71
70
61
76
69
69
68
69
67
69
70
69
69
70
69
70
70
70
72
73
71
71
72
73
71
72
71
74
71
72
78
70
72
78
70
73
78
72
51
97
83
75
75
76
73
61
86
74
74
73
73
74
74
74
71
70
72
73
72
72
74
73
74
74
73
74
74
72
76
73
73
75
73
73
73
76
71
73
74
72
72
74
73
72
73
74
77
76
74
77
53
96
78
74
73
74
72
72
73
71
74
72
73
73
73
73
74
74
74
74
75
75
75
75
76
74
76
75
76
75
76
77
75
76
75
76
75
75
57
95
74
73
73
62
85
74
74
74
75
75
74
76
73
74
71
72
72
71
71
72
73
73
73
74
74
73
75
74
72
75
75
75
74
74
74
73
75
72
74
74
74
75
74
74
75
74
74
74
74
73
73
71
73
71
70
70
78
61
70
70
71
70
69
72
70
70
72
70
70
71
72
71
71
73
73
70
73
72
72
73
72
72
73
72
72
72
73
78
69
73
81
77
78
75
77
77
75
52
100
75
73
74
74
73
75
75
74
74
73
73
74
74
75
73
74
73
73
72
70
69
73
71
69
70
70
71
70
70
70
69
69
69
70
68
70
71
70
69
72
70
72
71
72
73
73
74
72
72
71
72
72
73
71
76
73
71
72
83
75
73
77
73
74
73
76
73
74
74
74
74
75
72
75
73
74
73
72
74
73
73
73
73
72
73
72
74
72
72
72
72
73
72
73
72
73
72
71
72
71
71
71
72
71
73
73
73
73
73
74
74
74
73
73
73
73
77
77
73
79
75
75
79
76
75
77
75
76
74
78
53
97
76
75
74
75
73
72
73
75
74
74
75
55
95
74
76
74
75
75
75
76
75
75
76
75
76
76
75
81
78
76
78
79
78
76
75
80
53
101
75
76
74
74
74
73
74
73
73
74
73
72
73
72
72
72
69
72
70
71
71
71
73
71
70
71
71
51
91
71
70
70
71
70
72
69
70
73
70
72
71
72
73
73
71
72
74
72
71
72
71
70
71
71
72
72
72
73
73
70
74
73
73
75
75
69
78
71
72
72
70
72
72
71
71
73
72
71
72
73
72
73
73
73
72
72
72
71
71
69
71
72
72
73
73
73
73
75
73
74
74
70
72
71
72
72
73
73
73
73
71
75
74
69
78
74
70
76
73
72
76
75
73
73
78
75
72
75
73
74
73
74
74
74
75
74
76
74
77
53
94
78
53
93
75
74
73
74
74
75
76
76
76
80
57
92
83
77
77
72
79
73
73
74
72
72
72
74
72
73
72
74
74
74
74
74
74
74
72
72
73
72
73
72
72
74
74
76
75
78
78
78
79
79
77
77
79
77
76
75
76
76
75
77
75
73
74
75
75
74
75
74
75
75
76
76
73
81
77
78
77
78
77
76
77
76
77
76
55
99
75
75
56
94
74
76
76
76
74
74
73
73
74
74
75
74
74
76
75
76
72
80
53
99
76
73
73
72
71
72
70
71
70
69
72
70
70
71
71
70
70
69
71
70
71
70
70
70
65
74
71
70
71
70
71
70
71
70
71
71
71
74
74
74
71
78
75
76
74
76
74
75
75
73
77
74
78
76
78
76
78
77
77
53
102
78
76
76
76
74
75
74
75
75
74
74
75
74
74
74
73
72
72
73
72
72
72
72
71
70
70
71
68
71
69
69
70
69
69
69
69
69
69
68
69
71
71
71
73
72
71
73
72
72
70
72
71
71
71
72
71
72
72
71
72
71
71
71
71
72
72
73
73
72
74
74
76
75
75
74
73
74
75
74
75
75
76
75
75
76
75
74
74
74
74
74
74
74
72
73
72
71
72
72
70
70
71
72
69
72
70
72
72
72
72
72
74
72
72
72
72
72
71
71
70
70
70
70
68
68
67
68
67
68
66
67
67
68
68
66
67
67
67
67
68
67
68
68
69
68
69
70
69
69
72
70
71
70
71
72
71
73
72
73
73
70
72
71
71
70
71
70
69
70
69
69
70
70
70
70
72
70
71
72
73
72
73
73
73
71
72
72
73
72
71
73
72
72
72
73
72
73
72
73
72
73
72
71
70
72
71
70
71
70
70
70
70
70
69
71
71
70
71
72
73
72
72
74
73
73
73
73
73
73
73
73
73
73
73
73
72
73
71
72
71
71
70
72
72
71
74
75
77
75
76
75
78
74
78
53
101
76
76
76
76
55
97
77
75
77
75
76
77
77
77
76
77
76
75
75
76
74
75
74
73
75
73
73
73
73
72
72
71
70
72
71
71
71
72
72
70
57
84
71
71
71
71
72
72
72
73
72
74
73
74
72
74
73
73
74
73
74
72
78
72
78
76
83
78
79
78
79
54
102
77
77
77
76
76
75
76
75
76
76
74
75
74
74
74
74
72
74
74
73
73
73
74
73
73
73
73
74
72
67
81
74
72
73
73
74
75
76
78
78
73
83
54
105
80
77
77
76
80
78
53
106
77
77
77
78
77
79
77
76
77
77
76
78
78
79
81
79
55
106
76
77
78
78
78
78
78
55
102
77
77
77
77
76
76
76
75
75
74
74
73
73
73
74
72
75
72
74
73
73
74
74
74
74
75
74
74
74
75
72
75
73
75
74
75
76
76
75
77
75
77
75
77
75
75
75
74
75
73
73
73
73
72
72
71
72
71
70
72
70
71
71
71
70
71
70
60
80
69
70
68
70
70
71
71
72
71
73
73
74
74
73
76
73
71
79
75
75
74
76
76
75
76
74
75
75
74
75
75
75
73
73
74
74
72
73
73
74
72
72
71
72
72
72
71
72
72
72
72
74
72
73
73
73
74
75
74
74
75
75
75
75
75
75
75
75
75
74
75
74
76
74
75
74
76
74
76
75
76
75
76
76
75
75
76
75
75
74
74
74
73
73
74
73
74
73
73
73
72
72
72
71
70
71
70
71
69
71
70
70
69
69
69
69
69
69
71
70
70
71
71
72
72
71
73
72
72
73
74
75
74
74
74
75
76
75
74
77
77
75
76
77
76
77
77
78
76
78
77
78
77
76
76
76
76
74
75
74
74
74
74
73
74
73
73
73
72
72
72
73
72
72
72
71
72
72
69
71
70
69
69
69
70
70
71
70
71
72
71
71
72
72
71
70
71
71
71
71
71
72
70
51
91
71
70
71
69
70
70
70
70
71
71
70
70
70
70
71
71
72
71
71
72
71
71
72
72
71
72
72
72
71
73
72
70
72
72
70
70
71
69
69
70
69
69
70
70
71
72
72
73
73
75
73
72
77
72
75
74
74
73
74
74
72
73
72
72
72
74
71
72
73
71
70
72
72
70
73
72
73
73
74
74
74
76
74
80
77
76
72
82
78
71
81
78
77
77
78
78
77
77
76
75
76
77
76
76
74
72
72
72
72
73
73
71
73
72
73
72
76
74
74
74
74
75
75
74
76
75
73
76
77
75
59
91
73
73
73
73
72
72
73
71
72
73
72
74
66
79
72
73
73
72
56
86
74
72
71
70
70
71
70
70
71
71
71
71
70
70
70
69
70
70
71
71
70
71
74
68
71
71
70
70
70
70
70
70
70
70
69
71
70
70
71
70
70
71
70
72
71
71
71
72
72
70
71
72
73
71
72
74
69
71
75
69
73
69
70
71
71
73
71
73
75
73
74
72
75
73
73
75
73
76
74
74
77
74
77
75
79
76
77
78
53
104
80
76
53
101
74
75
74
75
75
73
74
76
74
75
75
57
94
75
74
74
75
73
74
74
74
73
74
74
74
74
75
75
75
75
74
77
76
76
76
75
78
77
74
77
77
76
78
54
98
81
77
77
74
76
76
75
76
77
77
77
78
78
78
78
74
74
74
74
76
76
77
76
77
77
59
89
77
77
75
76
77
77
79
59
96
79
77
76
76
53
100
74
76
76
77
76
77
78
79
78
78
52
103
77
76
75
76
75
75
76
77
75
75
76
76
73
73
74
73
74
74
75
76
74
76
75
76
76
75
79
75
77
76
78
76
78
57
102
77
77
54
103
76
78
76
76
55
101
77
78
79
78
78
78
78
78
80
79
83
78
80
81
80
56
107
82
80
80
81
79
79
79
79
54
101
76
76
77
76
75
77
77
75
77
77
77
77
76
76
78
76
78
76
78
80
78
80
79
79
79
80
80
80
79
80
78
77
75
76
77
77
76
79
77
77
80
82
82
81
82
82
80
80
80
75
75
76
77
78
50
95
80
80
77
78
76
78
76
77
75
78
76
77
79
77
78
77
79
77
79
77
57
97
76
74
74
75
76
76
76
77
78
78
79
79
81
81
80
83
82
58
108
80
80
55
106
77
77
57
78
77
77
78
77
78
78
78
78
79
79
78
78
78
79
79
79
100
78
79
78
79
77
79
78
78
78
80
79
79
80
78
80
80
79
79
80
80
79
81
81
82
82
82
82
81
81
81
81
79
80
79
79
79
80
79
78
77
77
76
75
76
76
77
55
103
78
79
79
79
53
105
77
78
77
78
76
78
76
54
100
77
77
75
75
76
77
76
78
76
77
77
76
76
76
75
74
75
75
75
76
76
75
75
77
77
77
78
79
79
78
77
78
77
78
76
78
79
79
78
79
78
79
79
79
78
79
79
77
78
78
78
78
78
77
75
77
77
75
77
75
75
75
74
76
75
76
75
76
77
75
76
76
75
74
74
76
76
76
75
77
76
77
76
75
77
74
76
76
74
75
75
75
73
75
74
74
75
75
76
76
76
78
77
76
76
77
77
77
78
77
78
80
56
100
77
78
76
75
76
76
74
74
76
74
58
95
75
76
59
94
75
78
78
80
80
79
81
80
80
82
80
53
109
80
79
54
104
77
78
59
96
75
75
74
75
74
75
76
75
76
76
75
77
75
74
77
75
74
75
74
74
75
74
74
74
72
75
74
75
72
73
72
73
73
74
74
72
73
73
72
73
71
73
72
73
73
73
73
74
74
75
75
76
76
76
76
78
77
76
77
77
76
77
77
77
78
77
77
77
76
76
75
74
73
74
66
84
74
75
77
76
75
75
78
53
103
76
78
76
76
76
76
75
76
76
75
75
74
73
75
74
74
74
75
74
73
74
74
73
73
73
74
73
50
93
72
72
73
72
72
72
72
72
73
55
90
72
72
72
72
71
71
71
70
72
73
73
73
76
75
74
76
52
102
74
76
76
76
76
76
53
100
76
74
76
74
75
75
76
76
77
78
78
79
79
53
104
75
75
74
75
74
75
75
75
76
75
76
76
75
76
76
75
76
55
97
75
76
76
74
77
76
76
75
77
75
75
75
76
76
76
76
74
75
77
75
75
75
75
77
76
77
76
77
76
58
96
75
77
55
98
75
75
74
76
74
75
77
76
80
79
80
79
81
80
82
80
80
78
77
77
54
75
76
77
76
77
54
103
78
79
77
79
79
78
81
56
104
80
80
79
79
79
79
79
79
80
79
79
77
77
77
77
78
78
75
75
75
55
98
76
76
76
75
74
77
76
77
78
77
78
78
77
77
76
76
74
73
72
73
73
73
72
73
74
75
75
75
76
76
76
76
76
75
74
76
77
78
75
78
79
76
77
78
76
77
78
77
76
78
76
77
76
77
76
74
73
72
74
73
74
73
75
74
74
73
75
75
75
74
76
76
75
77
76
75
76
77
76
77
77
77
77
77
80
77
73
72
63
87
73
76
75
76
74
77
77
77
77
77
76
77
75
75
77
77
78
77
78
77
78
78
78
76
77
77
78
76
78
78
78
77
79
77
78
77
77
78
55
101
77
76
75
75
73
74
75
75
79
69
76
74
65
84
74
74
74
55
93
73
73
73
76
76
79
79
80
79
82
54
105
78
76
76
73
76
74
75
76
77
77
77
79
80
80
80
76
80
81
78
77
79
77
77
77
78
77
78
76
77
75
75
74
73
75
73
74
75
77
74
76
78
77
77
77
78
77
78
77
80
79
78
79
80
78
79
80
76
76
78
52
69
103
77
55
78
78
77
78
78
78
80
78
80
79
56
106
77
79
78
79
80
79
78
78
78
78
80
80
82
82
83
82
80
80
79
79
78
80
79
79
79
78
77
78
78
78
77
80
78
79
77
78
76
76
74
76
75
76
75
77
77
75
77
78
78
77
79
78
79
76
77
78
76
78
78
78
78
79
79
56
105
77
81
78
80
79
80
80
57
104
78
80
80
80
54
108
79
80
78
80
80
79
79
79
78
77
77
78
76
76
77
76
78
55
103
78
77
78
78
80
79
80
80
79
81
79
80
77
77
77
79
79
77
80
79
79
82
80
80
82
82
101
75
76
75
77
75
77
75
78
74
78
76
78
77
76
78
75
77
77
78
77
78
54
104
78
77
76
77
77
76
78
78
78
79
80
79
79
79
78
78
78
78
76
78
77
77
78
78
79
77
78
76
78
57
100
76
77
77
76
76
75
75
74
81
66
74
74
75
74
74
76
75
73
73
74
74
73
74
73
74
73
73
73
73
73
73
73
74
73
74
72
74
73
74
72
75
73
73
75
72
73
74
75
73
73
75
74
75
75
75
75
76
75
75
76
75
77
75
76
76
77
77
75
73
73
74
74
75
76
76
77
76
76
76
78
78
78
79
80
78
80
81
76
77
77
76
76
78
79
78
79
81
80
80
81
78
79
81
79
81
79
81
79
80
80
79
78
79
80
79
79
80
81
80
81
80
80
79
80
78
78
78
78
78
78
78
78
78
79
79
77
78
78
77
78
77
77
76
78
75
77
77
77
76
77
78
78
76
78
77
76
77
75
75
79
77
77
77
77
78
75
77
78
77
77
77
78
76
76
79
76
76
76
75
74
66
79
73
74
74
73
75
75
74
75
73
77
59
92
75
75
75
75
75
75
75
76
74
74
75
75
77
75
78
78
80
79
81
82
85
82
79
80
80
79
80
79
80
80
80
79
81
80
79
80
81
80
80
81
79
82
57
105
78
80
78
79
80
79
80
80
79
80
80
80
80
82
82
81
80
81
81
80
79
79
80
80
80
80
81
79
79
78
79
78
76
79
78
78
57
100
77
77
77
77
77
79
76
79
78
78
77
77
77
60
74
75
74
74
72
72
72
72
73
72
71
74
72
72
74
74
74
75
75
76
77
76
77
77
75
74
76
75
76
75
76
76
76
75
76
78
77
74
73
75
70
71
69
70
69
72
69
71
72
73
73
75
74
74
76
74
74
76
73
76
75
75
75
75
76
76
75
74
74
72
75
73
74
73
76
75
73
76
75
73
76
76
75
76
75
75
76
76
75
76
77
76
77
76
77
77
77
78
78
77
78
77
78
76
77
48
101
76
76
76
76
77
78
78
78
79
79
79
79
80
78
79
79
78
77
78
78
78
78
79
75
77
76
75
77
77
74
76
75
74
74
76
75
74
76
76
76
75
74
73
74
74
74
73
75
75
75
76
77
76
77
79
78
78
78
78
79
77
77
78
76
77
77
76
76
77
77
78
76
77
78
77
76
77
77
76
77
76
76
77
77
75
77
77
79
78
79
80
79
80
79
79
78
78
79
77
78
77
77
76
77
77
75
74
75
75
75
74
72
70
72
72
72
73
72
72
72
71
71
73
72
73
73
74
74
74
75
73
75
74
74
78
77
78
78
76
76
78
78
76
77
76
77
77
76
77
75
76
74
75
74
74
74
72
73
75
75
75
76
77
79
77
78
79
79
79
80
79
81
80
76
79
79
81
79
80
78
77
77
67
86
77
76
74
76
75
76
76
77
77
75
79
76
78
78
79
78
79
79
79
79
80
80
80
52
108
80
78
78
79
80
79
81
81
54
107
81
79
78
79
79
81
80
79
79
78
80
79
79
77
78
77
78
79
78
79
81
81
82
83
82
83
83
85
82
83
84
83
81
83
83
81
82
81
81
81
84
81
83
83
84
83
83
85
56
111
85
84
85
83
83
84
84
83
86
83
84
83
82
85
83
83
86
84
84
87
84
83
87
59
111
88
87
87
84
86
85
83
86
83
84
87
87
86
88
88
91
87
88
89
87
87
88
87
86
86
86
86
85
79
78
82
82
82
84
84
84
84
86
85
83
82
82
82
83
81
82
83
82
83
83
55
114
83
82
82
82
80
80
81
80
79
81
81
81
80
80
80
81
55
108
80
80
79
79
79
80
79
79
58
102
78
78
78
76
76
76
77
77
76
78
77
79
78
80
79
80
81
80
80
83
80
79
82
79
81
80
79
81
82
80
80
83
84
84
83
84
88
87
86
88
86
84
83
82
81
81
79
79
80
80
80
80
80
80
81
80
81
83
81
81
81
82
79
78
79
76
59
94
74
74
74
74
74
73
71
73
75
73
74
77
76
77
77
77
78
77
77
78
77
79
77
78
78
79
79
78
79
79
77
78
79
78
78
79
78
79
79
78
78
78
76
76
78
63
86
76
75
77
76
74
76
77
76
76
76
76
76
77
75
77
77
77
77
79
79
79
80
80
80
78
79
78
77
79
76
76
76
75
76
73
75
76
75
75
76
75
75
76
75
76
75
77
76
75
74
75
76
74
74
75
73
73
75
74
73
74
73
74
74
74
75
74
76
77
76
77
77
77
77
76
76
77
79
77
59
98
77
78
77
76
77
76
76
75
75
76
76
76
76
77
75
78
75
76
76
86
61
75
74
73
73
71
73
72
71
73
72
72
74
72
73
72
72
73
73
72
71
57
85
71
72
72
72
73
73
73
74
75
75
74
75
76
77
76
76
68
85
76
78
75
78
77
77
77
78
77
77
78
77
77
77
77
77
78
77
78
78
79
79
79
78
79
78
77
77
77
76
77
76
76
77
77
75
77
76
76
77
77
77
78
78
78
78
70
87
77
80
78
78
81
80
82
81
83
80
79
80
78
75
79
77
76
77
77
77
56
98
76
77
76
77
77
78
77
78
78
79
77
78
77
78
78
78
77
76
77
76
78
77
76
78
77
76
78
78
78
79
78
77
79
77
77
76
77
77
74
77
76
75
76
76
76
77
76
77
78
77
77
77
77
78
78
76
76
77
77
76
78
78
76
77
58
96
75
75
76
74
76
75
75
77
76
75
76
76
76
76
77
76
78
78
76
78
76
75
77
73
74
75
73
73
74
73
72
70
72
72
73
72
74
73
74
73
73
74
76
75
76
76
76
77
76
75
77
81
79
77
78
75
76
77
76
77
77
77
78
76
78
79
78
78
80
79
80
79
79
78
78
77
79
78
81
80
81
109
79
80
79
80
79
80
80
80
81
80
81
80
81
81
81
80
81
82
79
81
82
78
50
107
79
84
83
83
84
83
57
111
81
78
78
78
77
79
78
79
78
77
77
76
78
54
98
76
74
75
75
75
75
75
75
74
75
76
75
76
76
75
76
76
77
77
76
77
77
77
74
77
74
75
75
74
74
73
74
74
75
74
74
76
75
75
78
77
77
79
76
77
75
76
77
75
76
77
78
77
76
78
78
77
75
76
76
78
78
79
81
80
55
108
79
78
78
77
78
77
77
76
77
76
78
76
77
74
74
74
73
74
73
75
76
75
77
77
55
104
78
79
78
80
78
79
80
79
73
74
73
72
74
72
72
72
73
72
71
71
71
71
72
72
73
73
73
74
75
76
75
77
78
78
77
77
77
76
76
76
76
73
73
71
73
72
72
74
75
75
75
77
74
77
77
76
77
77
76
76
76
76
75
75
74
77
75
75
75
76
76
74
76
74
75
74
73
74
73
73
75
73
74
75
75
74
76
75
75
75
77
78
77
79
80
80
80
80
82
79
81
79
74
74
73
75
74
72
76
70
72
80
67
75
75
74
74
76
76
74
76
76
75
76
74
76
75
76
75
76
76
78
75
79
77
78
78
78
78
79
79
77
69
88
78
80
77
78
57
102
77
79
75
76
75
75
74
75
76
74
76
75
74
74
73
73
73
76
56
99
75
77
79
78
78
82
80
82
81
81
81
82
83
82
85
83
83
82
82
82
79
80
78
80
78
78
80
80
79
53
107
78
79
78
78
77
78
77
79
77
79
80
79
81
79
80
82
83
57
109
80
78
79
79
78
78
77
78
78
78
79
80
79
79
81
80
81
82
80
80
79
78
78
78
78
78
80
79
79
78
80
79
80
78
79
78
79
78
78
55
105
80
81
82
80
81
81
80
82
80
78
80
80
78
79
79
77
79
78
76
79
75
76
75
78
76
76
78
76
77
74
74
76
74
76
76
77
78
78
79
79
79
81
57
106
79
79
78
79
77
78
78
78
78
78
78
78
79
55
105
80
78
78
79
54
104
77
75
75
75
75
75
76
76
76
78
79
79
80
81
80
83
83
79
81
81
80
79
79
77
77
77
78
76
76
79
77
76
77
76
77
77
76
76
78
76
78
79
79
80
81
78
79
79
77
79
78
77
79
78
77
75
75
75
74
75
75
76
75
76
76
75
75
76
74
74
75
74
74
74
74
96
74
75
75
75
75
76
77
75
77
76
76
77
76
77
77
79
78
79
80
78
79
79
77
79
76
75
77
75
77
75
76
78
74
77
77
75
77
76
76
76
77
76
74
77
64
85
50
45
50
48
49
50
50
50
52
51
52
51
52
50
52
53
51
53
51
51
51
52
51
54
54
54
55
53
95
81
81
55
107
79
79
54
102
77
75
75
76
76
76
76
76
76
76
76
76
75
76
77
76
54
102
76
77
75
75
76
76
75
76
76
77
76
78
79
53
106
77
77
78
78
78
78
79
77
81
81
80
81
83
85
84
85
86
52
123
84
86
83
86
88
86
87
89
88
89
89
90
86
91
88
87
90
86
86
87
86
83
81
82
81
80
83
82
81
83
84
84
82
85
83
83
83
82
82
82
82
81
82
82
82
81
82
82
82
81
81
82
81
83
83
84
85
85
86
86
88
88
87
88
87
87
86
86
83
82
84
82
79
80
79
78
79
55
71
100
77
79
77
76
77
78
76
76
75
74
75
74
76
76
77
77
78
76
76
77
76
77
78
78
79
79
78
79
80
79
82
82
82
81
79
78
79
78
78
78
77
80
82
81
81
80
80
81
79
80
79
79
48
103
77
74
74
74
74
74
74
76
76
76
78
76
75
79
76
78
78
79
77
80
77
81
78
79
79
78
77
78
81
79
79
82
79
81
79
83
80
82
78
79
80
79
79
79
80
80
79
82
84
82
55
116
84
82
81
80
79
77
77
76
77
76
75
77
77
75
76
78
76
79
78
78
78
77
77
79
78
79
79
79
81
80
82
81
83
83
83
83
85
83
83
84
82
85
84
82
85
83
82
83
83
84
82
82
81
55
106
81
80
78
79
79
80
81
81
80
80
78
79
81
81
81
81
81
81
83
82
79
81
85
83
81
84
82
81
81
80
75
79
78
77
81
81
82
82
83
81
85
81
84
81
81
80
81
81
82
82
81
79
83
83
83
82
83
83
83
82
83
82
81
83
82
81
79
78
78
77
74
75
80
71
76
78
77
78
79
76
76
76
77
78
79
77
78
78
79
79
78
76
78
77
79
79
79
79
78
79
79
79
80
80
81
81
83
83
84
83
86
87
87
85
85
85
85
84
84
83
84
86
86
84
83
83
47
99
80
82
80
79
76
78
76
78
78
78
76
78
77
78
77
76
77
76
77
77
77
77
77
78
77
79
79
78
79
79
79
79
78
78
79
78
78
79
80
79
81
82
81
84
82
82
83
82
83
84
82
81
80
76
81
79
79
78
80
81
78
81
81
81
81
81
79
80
79
79
84
83
83
83
83
80
83
80
57
107
81
79
78
78
80
79
77
81
80
80
80
81
81
82
82
83
82
59
107
82
83
83
82
84
85
83
85
53
115
84
82
81
82
82
84
84
83
84
84
85
83
84
85
86
84
85
85
83
84
82
84
84
85
83
78
91
84
84
84
84
83
84
85
85
85
86
84
86
85
84
86
85
84
85
86
85
85
87
85
86
86
85
86
85
86
86
85
87
86
88
86
85
87
87
85
87
86
86
86
87
86
86
85
82
83
85
85
84
86
84
85
83
81
81
83
83
84
86
86
87
86
87
86
88
85
87
87
89
87
88
91
89
90
89
88
87
88
88
88
89
88
88
90
87
88
90
88
89
91
91
92
89
93
93
92
92
92
94
92
92
93
95
92
94
94
92
94
94
93
93
93
92
95
94
94
91
94
94
95
93
95
96
96
67
118
97
95
92
96
96
92
95
95
94
91
96
96
92
96
95
95
94
96
95
93
96
96
97
94
96
95
93
94
93
96
95
95
93
94
95
95
90
96
89
94
92
92
91
92
94
93
90
95
96
92
94
94
92
90
90
90
87
89
89
89
88
90
88
86
87
88
86
88
89
89
87
91
90
91
89
93
90
89
89
85
86
83
83
80
81
79
73
83
77
76
76
75
74
72
72
71
70
68
69
69
69
67
68
69
68
70
69
69
69
71
70
68
71
72
70
71
74
73
73
75
76
76
74
79
76
77
77
78
78
79
76
77
79
80
80
79
81
79
81
81
78
81
81
83
80
83
79
81
83
82
83
81
82
84
80
84
81
84
83
84
83
86
86
85
86
86
87
83
88
88
87
86
92
90
90
90
90
77
56
80
113
90
67
111
88
89
89
89
88
90
88
89
87
88
91
91
91
89
88
90
90
92
89
89
87
86
84
78
92
88
84
82
83
85
84
86
86
85
87
88
89
87
90
88
86
86
88
84
91
92
88
90
90
89
89
88
86
90
87
91
86
83
86
85
83
83
81
82
82
80
80
79
80
79
81
79
80
79
79
78
79
77
78
78
76
79
78
77
77
78
76
75
76
76
76
76
76
81
71
60
91
75
75
76
78
77
75
74
76
73
75
73
75
72
75
73
65
84
75
73
75
74
74
75
75
76
77
78
78
79
79
82
79
82
80
79
82
80
78
80
81
78
79
80
82
57
103
80
80
79
79
78
80
80
80
81
83
81
83
82
86
85
84
85
84
85
86
56
115
81
80
80
79
79
81
80
84
79
85
84
86
85
86
86
84
84
82
82
82
82
85
83
84
84
83
85
82
85
85
85
86
86
87
86
88
88
87
85
87
86
84
82
82
81
82
82
83
82
82
83
83
82
85
82
81
84
81
80
82
81
81
80
81
83
57
113
82
85
83
83
85
85
85
84
85
81
84
83
81
84
56
111
80
83
81
81
82
81
81
82
81
57
105
79
80
79
79
79
82
80
81
81
80
82
81
78
80
80
80
78
81
79
81
81
80
79
78
80
79
80
79
80
80
80
79
79
80
79
78
78
80
79
78
82
80
79
82
80
79
81
81
79
81
81
81
81
83
83
79
83
81
81
82
81
79
82
78
78
79
78
78
78
78
76
78
77
58
97
77
76
76
76
76
78
76
77
78
77
78
79
79
79
55
107
80
79
81
81
81
79
81
80
80
80
81
80
81
81
56
108
80
81
82
80
80
79
79
78
75
75
75
75
75
76
75
76
76
76
74
77
77
76
78
77
78
78
79
79
77
77
78
77
76
76
76
76
78
78
77
81
80
79
82
81
81
80
81
80
81
54
108
80
80
76
78
78
79
81
81
81
80
83
82
82
83
83
57
108
80
79
78
78
78
77
77
77
76
75
76
74
75
74
75
73
75
75
76
76
78
74
78
76
76
76
76
77
78
77
78
77
78
77
76
79
77
77
76
76
78
76
77
76
78
78
78
77
79
78
78
77
80
78
80
80
80
82
81
81
80
82
83
82
83
82
83
84
83
85
84
85
84
84
84
84
83
84
84
82
56
114
86
84
84
85
87
56
119
87
88
85
87
87
85
88
89
88
87
87
86
85
84
84
84
82
82
83
80
82
83
83
83
85
85
84
86
87
88
87
90
89
89
89
88
88
87
85
85
84
84
84
86
86
84
87
87
86
86
86
85
84
86
84
83
86
83
83
84
85
85
87
84
84
84
85
84
85
84
82
85
85
86
85
86
85
86
61
111
83
82
81
79
80
80
79
78
80
80
81
80
81
81
57
109
82
81
80
81
83
86
88
89
87
88
87
86
86
87
84
84
80
84
82
80
82
79
82
83
83
85
84
86
84
81
86
85
84
82
83
81
85
84
83
85
57
115
85
85
83
83
83
79
83
82
84
84
81
85
85
83
85
85
86
86
85
86
85
83
84
80
79
80
78
77
81
79
78
79
79
81
83
79
84
82
68
93
77
81
80
77
79
79
81
81
81
83
84
79
81
84
85
85
84
86
84
85
82
84
80
85
83
84
84
82
84
83
83
85
83
85
82
81
80
80
81
79
82
81
80
81
82
80
82
80
80
80
79
79
79
80
79
80
79
80
81
80
80
78
77
79
79
79
80
82
80
83
82
83
80
84
59
113
85
89
89
90
91
91
91
92
92
92
91
93
92
92
93
92
93
96
96
96
96
97
96
98
98
94
97
94
96
95
95
95
91
94
94
93
92
92
89
93
92
91
92
90
90
86
85
88
89
90
90
92
90
92
90
90
90
90
91
90
89
88
83
87
81
84
83
83
83
84
84
85
81
83
83
83
81
83
82
82
83
81
82
88
88
88
89
87
89
90
89
87
91
90
87
91
92
90
90
92
92
91
89
89
90
89
88
87
88
90
89
89
90
91
91
92
91
94
94
94
95
96
97
96
93
93
92
91
88
87
83
82
83
81
85
78
80
82
87
85
80
88
87
87
88
65
116
88
87
86
83
87
86
85
84
84
65
112
85
90
83
88
87
89
89
94
93
94
94
94
95
93
94
94
92
92
94
94
94
94
92
95
96
96
95
95
95
96
96
96
94
93
94
95
92
94
95
94
92
93
91
88
87
94
92
89
90
87
90
90
91
90
88
89
87
87
86
86
85
83
84
84
84
85
84
83
85
84
85
86
85
85
86
86
87
86
86
86
86
86
86
86
86
85
84
85
88
87
88
87
85
86
86
85
86
80
83
86
82
85
84
82
82
80
80
80
77
77
80
79
77
77
76
76
75
74
75
72
76
76
76
76
77
75
77
79
78
79
77
78
76
76
76
75
73
76
76
77
77
77
75
80
80
81
81
83
82
81
83
82
81
81
79
82
82
83
82
84
82
82
86
85
86
87
85
89
87
86
83
84
83
81
84
84
85
83
88
89
93
93
91
88
90
91
91
90
90
88
85
87
85
87
89
90
91
89
91
89
89
87
87
87
82
85
83
85
85
85
85
86
58
115
83
83
84
83
85
85
86
55
110
85
87
87
87
87
87
85
86
85
83
83
82
83
85
89
92
93
93
95
92
94
91
95
93
94
93
89
94
94
93
92
96
96
95
98
94
96
95
95
91
94
94
93
92
89
89
88
88
87
86
90
91
88
94
92
92
64
126
93
95
95
94
93
95
97
97
96
95
98
98
93
96
92
88
87
84
86
84
83
85
83
86
84
86
85
87
88
88
89
86
88
91
89
88
89
86
88
89
90
89
91
88
87
90
90
88
90
89
91
91
88
91
89
88
88
91
91
93
93
95
96
94
96
97
88
94
95
93
92
88
88
90
91
87
90
90
92
90
92
90
88
89
88
85
82
82
82
66
97
84
87
85
91
93
94
91
95
94
96
95
94
96
96
95
97
97
96
95
95
96
95
93
92
92
92
91
89
91
91
90
88
92
90
88
89
88
85
87
86
87
84
86
85
85
85
86
87
86
88
90
90
92
91
94
94
93
95
91
94
94
93
95
94
94
94
92
92
89
93
88
92
93
65
123
90
91
88
86
88
89
88
88
81
96
88
89
90
91
91
90
90
90
89
91
88
91
91
89
93
92
94
94
91
97
94
92
97
96
96
94
99
96
93
90
94
91
92
92
90
85
87
86
87
90
90
90
93
92
90
90
90
92
88
91
87
89
89
90
87
89
89
88
88
88
89
85
84
85
84
84
86
85
86
87
86
96
72
84
83
83
82
85
83
85
86
85
85
84
85
83
87
85
84
86
88
89
88
88
86
89
86
87
85
86
85
82
87
82
80
78
78
78
80
79
81
81
81
82
82
82
81
81
81
81
82
82
80
84
85
86
85
86
84
83
83
83
81
82
82
81
82
82
81
82
81
80
81
79
79
79
80
79
79
80
80
79
82
80
79
77
76
76
77
78
76
76
75
79
79
76
80
81
79
83
81
80
81
83
81
82
81
83
79
80
79
77
80
74
79
77
78
77
76
79
78
78
79
80
78
77
78
78
78
76
79
79
80
81
83
83
80
84
82
54
115
80
85
81
83
80
82
81
82
79
81
80
79
79
79
79
76
77
78
76
75
76
74
76
75
74
75
76
74
76
75
74
76
74
76
72
74
74
72
73
74
73
73
73
74
75
77
76
78
79
79
78
80
78
82
82
84
84
84
86
54
112
80
83
80
83
80
84
82
85
84
84
84
83
81
80
53
110
77
81
79
82
55
112
82
84
81
83
63
107
82
84
82
83
84
83
85
83
83
85
83
82
85
83
81
84
85
55
115
81
84
81
83
84
83
82
83
85
83
84
84
84
84
83
85
84
82
84
83
81
83
82
81
81
82
81
83
83
81
80
83
83
83
82
84
84
85
85
84
83
83
85
83
83
83
83
82
81
83
81
81
81
82
80
79
86
86
85
84
85
83
82
82
81
81
80
79
71
73
74
70
73
72
73
75
72
75
69
79
78
79
78
79
78
77
78
78
77
76
79
76
76
78
54
82
91
73
74
75
75
73
77
76
76
78
79
77
79
79
79
77
79
79
78
76
79
77
78
77
78
77
76
77
75
75
78
74
76
77
77
76
78
79
77
56
102
77
78
77
79
75
80
77
77
79
79
76
78
76
75
77
75
73
76
75
74
75
75
74
76
63
87
75
76
75
75
74
78
74
76
77
77
75
78
76
76
78
78
76
77
76
56
72
73
74
74
74
76
75
76
75
75
77
78
53
103
71
81
76
78
75
77
77
78
77
78
78
78
79
80
79
79
79
79
78
77
77
77
76
76
78
75
79
77
76
77
77
74
73
74
75
73
75
77
76
76
76
74
75
76
56
63
57
116
73
75
61
88
72
76
73
74
75
74
74
76
74
75
76
76
56
97
77
75
74
75
75
73
73
62
84
71
72
71
71
69
72
70
70
71
72
71
72
70
73
72
71
71
70
70
71
70
70
69
69
71
70
70
70
69
69
69
70
71
72
70
71
75
74
73
48
90
74
78
77
77
76
76
79
76
77
76
75
78
76
75
73
74
76
73
75
76
75
56
96
65
82
73
73
74
72
74
71
71
70
71
53
87
69
71
68
68
69
70
69
70
70
70
69
72
71
71
73
74
73
73
73
75
75
73
77
76
74
75
76
78
76
76
78
77
75
76
76
73
77
56
95
73
74
70
45
100
73
76
74
76
72
52
106
74
75
74
75
73
74
74
74
74
75
74
74
76
76
56
95
74
74
73
72
59
85
70
71
71
70
71
70
71
71
73
73
71
73
74
57
95
74
75
74
75
75
74
73
74
73
74
73
74
74
75
73
75
75
74
74
74
75
56
92
73
74
72
49
97
73
74
58
92
72
73
73
73
72
71
71
49
94
71
70
72
70
70
71
70
70
70
70
70
69
70
71
69
70
70
71
68
70
46
92
69
72
69
70
70
72
70
67
67
68
67
68
68
67
68
69
68
68
62
77
70
72
71
70
74
53
93
75
68
47
98
76
75
75
74
75
77
71
80
78
77
81
76
63
94
80
73
81
77
65
87
76
76
76
76
75
76
74
72
72
73
72
72
73
72
73
74
74
76
76
76
78
76
76
79
78
75
83
55
108
83
81
55
111
83
81
52
110
83
83
76
82
54
106
85
79
84
82
77
85
85
52
113
87
85
85
80
82
53
106
82
79
80
79
78
79
54
106
81
79
80
78
79
81
78
81
80
78
81
78
76
77
77
77
79
78
79
80
81
76
87
85
84
83
84
83
82
83
84
80
82
83
81
81
83
82
81
82
76
85
85
83
82
82
83
83
79
81
82
81
77
81
81
81
81
81
79
81
80
81
82
82
81
81
84
79
81
80
80
78
78
78
79
81
78
81
82
82
82
84
86
86
83
85
85
85
49
112
86
84
84
85
85
84
87
84
85
84
85
83
82
82
83
82
83
84
83
84
83
81
81
82
81
82
81
83
82
82
82
84
82
82
54
114
82
80
80
79
81
80
79
79
77
77
80
78
81
81
82
83
80
83
83
81
82
82
83
82
85
84
83
85
83
83
85
82
82
84
82
82
83
80
81
80
79
82
81
81
82
83
82
81
81
80
57
104
81
79
78
79
78
81
79
83
83
86
86
86
85
88
86
88
90
86
89
88
59
116
86
83
83
81
80
82
58
107
84
83
56
109
84
82
79
81
80
81
80
57
107
81
81
80
82
81
83
83
83
84
85
84
85
56
111
82
81
81
80
81
81
82
85
86
85
85
87
87
83
83
86
87
83
87
86
87
88
86
88
88
88
88
89
88
90
87
90
91
89
91
90
91
92
93
91
93
94
92
94
94
96
93
95
91
91
91
90
91
92
88
90
89
90
90
85
87
88
86
90
89
85
89
57
116
89
87
85
59
109
84
84
82
82
83
82
83
82
83
80
83
81
83
82
81
83
83
83
83
81
82
83
83
84
84
83
85
87
84
85
86
87
85
85
86
87
84
84
85
84
82
83
84
85
82
83
83
59
112
82
82
82
84
79
84
83
80
84
83
83
80
59
107
79
80
80
81
77
80
80
77
80
79
78
80
79
81
79
82
82
79
83
81
80
83
81
82
82
82
81
81
82
81
80
82
82
83
81
83
80
83
83
83
83
81
86
82
83
82
85
80
58
110
81
82
52
107
80
82
77
81
80
78
83
82
80
84
84
86
60
109
80
84
81
81
82
82
81
84
81
80
83
81
80
81
84
83
82
82
85
82
85
82
83
84
82
83
82
81
83
82
81
81
82
81
83
82
84
82
83
84
84
83
84
83
81
84
82
80
83
83
82
84
84
84
81
85
84
83
83
84
81
85
83
83
84
83
82
84
84
83
80
83
82
81
82
84
80
83
82
79
80
80
79
81
78
78
75
76
77
76
75
56
97
75
79
78
79
79
80
78
82
56
106
80
81
80
81
80
80
80
55
106
77
80
79
79
80
80
80
55
108
78
81
78
79
79
80
79
80
80
81
77
81
79
79
77
77
78
77
49
103
77
77
78
79
78
78
80
79
79
80
78
81
79
78
80
79
78
79
79
76
80
78
78
77
75
76
77
75
76
76
76
74
77
76
75
77
77
75
77
76
76
77
77
78
78
77
79
79
80
80
83
81
84
82
82
83
82
83
84
83
83
85
84
85
82
83
84
80
51
107
79
83
79
81
82
79
82
81
79
82
79
79
77
80
79
77
57
102
78
81
81
81
80
84
83
57
112
83
85
84
86
85
85
85
86
55
118
85
85
83
83
82
83
83
81
83
83
83
84
85
84
84
84
83
81
83
82
81
82
82
81
81
81
82
81
81
81
80
81
80
80
80
80
78
81
80
79
81
80
78
79
80
79
80
80
79
81
81
82
82
83
81
82
83
84
51
109
80
81
81
81
79
81
62
98
81
81
81
80
82
80
82
82
82
83
83
83
58
111
83
84
84
83
85
59
110
82
85
83
83
85
83
83
85
86
55
121
85
87
84
86
86
87
85
84
87
86
83
85
85
85
84
59
116
83
88
86
86
86
86
84
88
85
84
83
86
85
83
84
82
83
84
83
82
83
81
84
83
82
84
85
84
82
83
83
80
80
80
80
64
93
77
78
78
78
77
78
76
78
77
59
96
75
76
76
75
74
75
75
74
76
76
74
76
75
75
76
76
76
77
77
76
77
76
77
76
75
77
75
77
77
76
77
77
76
78
78
76
77
77
76
77
76
76
77
78
77
78
79
79
78
78
79
80
79
78
78
78
77
78
77
77
78
76
57
99
78
77
79
78
78
80
80
78
82
80
84
82
55
113
81
82
56
76
106
80
80
57
105
80
81
58
104
80
81
82
80
81
81
50
109
81
88
81
85
82
84
83
82
85
82
85
60
112
83
83
83
84
82
86
84
83
85
85
82
86
85
85
85
84
86
85
83
85
86
86
86
88
87
88
88
87
87
87
88
83
88
86
88
85
90
89
87
85
90
90
92
90
88
88
86
84
85
82
84
82
81
83
84
82
84
81
82
84
83
83
82
82
81
84
84
80
85
84
85
83
87
87
84
82
86
83
84
84
83
86
84
84
83
87
85
85
86
86
84
86
85
86
83
59
113
84
84
57
112
81
82
57
107
81
81
79
80
78
79
77
79
80
80
82
81
83
83
83
80
81
78
58
100
76
78
76
77
75
75
80
79
78
81
85
81
88
85
57
109
85
81
81
82
80
80
79
80
78
80
78
80
81
83
84
82
81
79
79
78
77
77
79
78
77
78
78
77
79
77
75
77
67
84
76
77
75
68
86
77
77
77
77
75
77
75
76
77
76
79
81
81
84
85
84
84
86
85
86
54
116
83
82
80
79
80
81
81
80
82
81
82
84
84
82
86
84
84
83
81
82
82
85
85
82
84
88
87
85
86
82
86
84
84
84
83
81
82
80
80
79
80
79
81
81
83
84
85
83
85
86
85
87
86
85
82
81
81
81
78
78
77
77
77
77
77
76
74
76
77
76
75
78
75
77
75
75
78
75
77
76
76
77
76
75
74
76
74
74
74
72
73
72
70
73
73
72
73
74
74
75
73
74
75
75
74
76
76
76
77
76
77
77
77
77
77
79
78
79
79
77
76
76
76
79
76
78
80
80
78
82
81
56
110
83
83
80
83
82
83
80
81
81
80
81
85
82
83
87
86
86
87
88
88
87
55
117
83
82
80
81
79
78
79
77
77
78
77
75
75
77
75
76
76
77
78
75
77
77
77
76
76
78
76
75
74
76
75
75
75
77
77
76
79
79
79
81
80
81
80
82
81
81
83
82
83
82
81
82
79
83
81
81
84
83
83
83
82
83
82
83
84
84
83
84
58
110
52
109
81
81
81
77
79
78
81
56
109
81
85
83
84
86
83
87
86
53
117
83
83
81
80
78
79
76
77
76
78
76
76
72
74
73
72
72
70
72
72
72
71
72
75
74
75
75
77
76
76
76
77
77
77
78
77
77
77
79
77
77
76
78
77
76
76
75
77
59
96
76
78
79
79
78
80
80
81
80
79
55
104
78
80
80
81
78
83
55
114
79
84
82
81
82
82
81
83
82
81
83
81
81
80
79
82
81
81
81
84
84
85
84
84
84
82
85
86
84
85
85
84
82
84
46
106
80
82
79
81
79
80
78
77
80
80
81
82
81
82
81
83
83
83
82
82
82
81
83
82
82
82
82
83
80
82
81
81
80
81
80
79
61
96
77
79
78
80
80
80
83
85
54
124
85
89
87
86
83
85
83
81
82
80
79
79
80
79
79
79
81
80
79
80
82
83
83
81
74
89
80
79
81
81
78
84
80
82
82
82
55
116
81
83
80
67
96
80
81
80
79
79
81
79
79
80
80
78
80
77
79
77
78
79
78
79
79
58
103
79
81
80
80
80
80
81
80
81
81
80
82
81
79
80
79
55
104
78
77
77
77
77
78
77
78
77
77
76
77
78
79
79
81
81
82
83
84
82
85
86
87
88
87
87
88
85
85
86
85
83
85
85
84
84
84
83
84
85
84
86
84
85
85
84
82
83
81
81
59
105
79
81
80
81
79
96
66
83
80
85
82
83
82
83
81
83
58
110
80
84
82
81
83
82
81
83
84
83
84
86
87
86
85
87
87
86
87
86
84
86
86
85
84
87
85
88
87
86
86
87
85
87
88
87
88
90
89
89
87
89
87
86
87
86
86
85
86
86
88
89
87
86
83
85
84
83
56
116
83
87
88
85
60
121
86
87
88
87
81
86
83
83
83
82
83
80
83
81
83
81
84
81
82
82
82
81
81
82
58
125
87
90
89
89
88
88
87
86
85
90
85
89
86
87
87
85
88
86
88
87
86
88
90
89
90
87
87
87
85
83
85
84
83
82
86
85
61
104
85
86
86
85
87
87
84
85
83
59
113
80
83
81
75
84
79
82
80
81
83
82
83
84
83
82
84
83
82
80
83
81
82
80
80
78
78
79
80
82
81
82
85
86
85
87
87
87
86
89
88
86
87
87
86
89
88
85
85
86
85
83
84
83
84
83
84
81
86
83
83
82
86
86
84
87
88
88
89
90
88
92
93
88
88
88
86
88
88
85
88
86
85
87
87
86
87
84
87
56
118
84
85
84
85
86
86
85
88
86
84
86
86
87
85
86
82
83
84
81
81
81
80
81
81
79
80
82
81
83
82
83
83
85
82
84
85
84
86
87
85
86
85
88
87
85
87
88
83
82
81
79
79
77
75
77
76
73
76
73
76
75
74
74
73
75
74
74
75
78
76
77
75
77
73
76
75
73
75
74
74
76
76
77
74
77
76
78
78
76
79
77
76
75
76
75
74
78
76
80
79
78
78
77
80
78
81
81
82
83
83
83
83
82
85
85
85
86
87
85
84
84
86
57
121
86
87
85
84
85
84
84
83
82
80
81
80
78
81
78
58
102
79
79
79
80
78
81
77
77
77
77
77
76
77
77
75
75
75
77
74
75
74
73
76
75
77
77
77
79
81
80
81
80
82
82
82
82
82
76
74
76
77
79
79
82
81
80
80
81
81
80
82
79
79
79
80
78
79
77
80
79
79
78
78
80
80
80
79
80
79
79
78
78
77
78
77
49
103
77
78
78
77
77
77
79
79
79
82
81
82
58
106
78
82
79
80
78
78
79
80
79
79
80
80
80
80
57
104
79
77
78
78
77
79
80
80
81
79
78
80
59
102
77
77
78
79
77
78
79
78
79
79
80
79
81
80
80
82
81
80
79
81
79
61
100
81
79
80
77
78
78
77
80
78
79
80
79
78
79
79
78
77
78
78
77
78
79
78
79
80
81
81
80
56
106
83
79
77
77
76
77
77
77
77
80
79
79
81
82
79
78
82
57
103
81
74
48
44
51
51
48
50
50
51
51
51
50
52
52
54
51
54
52
55
55
52
55
53
56
56
52
55
59
59
56
61
58
58
61
58
56
60
58
60
61
58
64
59
62
61
55
113
94
91
86
90
87
86
54
118
83
83
83
58
109
82
85
75
95
84
87
83
83
85
81
84
83
58
112
83
84
82
84
83
82
85
65
102
89
84
54
120
85
85
84
84
84
85
53
72
113
86
84
85
85
82
84
85
82
83
88
85
84
87
85
82
89
85
83
88
87
87
85
87
90
87
88
87
81
91
88
87
87
86
87
86
86
84
88
88
88
90
87
88
86
84
84
83
85
86
86
84
90
87
84
89
88
89
85
86
83
82
83
83
82
85
83
84
83
81
87
85
85
85
85
85
83
83
82
83
82
82
84
83
85
84
86
84
85
87
88
85
87
89
86
87
89
87
85
87
56
118
92
89
89
89
90
56
119
91
86
58
115
87
87
88
60
112
87
87
86
86
86
87
86
88
87
56
119
89
87
90
90
88
88
88
88
87
87
86
86
85
84
83
82
82
58
112
82
85
84
83
84
86
85
87
90
89
87
90
89
87
89
87
88
88
89
89
90
88
90
92
90
90
92
90
89
89
89
89
90
91
90
90
91
90
91
91
91
92
92
91
91
89
89
86
89
87
87
86
85
84
86
86
84
90
90
59
127
94
94
91
93
91
92
92
90
91
92
91
62
112
92
94
92
93
92
92
91
92
94
91
91
93
92
94
92
92
93
93
95
92
95
96
95
98
99
97
100
96
98
100
100
96
98
99
94
95
96
93
94
96
93
94
93
92
92
93
92
93
91
93
92
93
93
93
91
94
92
90
91
90
89
90
88
90
89
86
89
88
88
86
88
89
89
89
90
89
90
91
92
89
89
90
93
89
91
93
91
90
91
92
90
90
92
90
90
91
89
88
87
87
86
86
85
82
83
83
84
84
85
86
85
86
84
85
86
85
84
87
85
84
88
86
86
83
82
84
84
84
90
89
89
90
88
90
90
89
90
88
85
87
84
86
86
59
117
85
87
86
86
84
85
86
86
85
58
116
85
85
84
86
84
85
87
87
85
91
88
86
90
91
90
92
90
91
92
91
89
89
88
85
86
87
86
86
82
84
83
84
83
84
84
84
84
83
85
84
86
86
86
85
86
84
86
82
85
83
81
84
83
84
85
85
85
85
83
64
106
82
81
81
79
80
80
69
91
80
82
80
83
83
81
84
85
85
86
82
83
81
83
81
82
81
83
85
86
84
85
84
84
81
82
82
81
80
80
81
81
81
81
82
81
82
82
82
83
85
84
85
85
88
87
88
87
85
83
85
86
85
85
85
85
83
82
83
81
82
83
81
83
83
83
57
111
81
81
80
78
77
75
75
77
75
78
58
108
80
80
79
80
80
80
80
79
80
79
80
80
81
80
81
81
81
80
82
81
79
81
80
80
79
81
80
80
81
83
82
81
82
59
105
78
80
81
80
79
80
80
78
75
74
69
80
74
75
73
75
75
74
74
74
74
73
73
74
72
72
70
70
71
70
72
73
72
75
74
74
74
62
90
75
75
75
80
79
80
79
55
71
104
77
79
77
77
74
75
49
72
56
89
71
73
73
72
73
73
73
71
78
68
71
70
72
70
71
70
72
71
72
71
70
71
70
71
72
70
70
75
67
70
72
71
71
72
71
71
72
71
74
70
72
71
72
71
71
72
73
71
72
71
74
72
73
73
77
75
77
78
77
75
85
54
107
83
82
82
83
81
77
85
57
104
84
83
81
80
54
107
79
78
78
79
82
83
82
80
83
83
80
54
109
77
79
75
77
54
102
77
79
52
107
78
80
77
79
77
77
80
78
80
79
81
79
82
81
81
82
80
80
82
80
81
80
81
80
81
81
80
80
81
79
79
78
81
78
79
80
80
77
76
56
102
76
76
76
75
77
78
78
79
78
77
76
75
77
75
76
78
78
77
80
79
80
79
79
80
80
80
80
85
58
108
84
81
57
111
81
80
55
104
80
81
55
109
79
81
56
109
80
82
55
103
86
82
83
54
110
82
83
81
80
82
57
106
83
80
80
81
78
81
77
80
56
101
79
79
78
79
58
100
76
76
76
73
75
74
75
74
75
74
74
75
74
74
74
72
72
77
70
73
73
72
74
72
73
73
75
73
73
75
73
73
75
73
74
76
76
74
75
78
81
75
85
57
97
90
83
84
75
88
60
104
85
84
82
76
56
111
83
79
82
83
81
83
83
84
83
81
80
80
84
81
80
84
81
82
80
82
80
81
83
83
81
81
82
83
82
56
114
81
83
78
80
81
82
81
81
82
80
79
82
80
82
81
83
81
80
77
78
80
78
78
80
79
78
80
80
81
80
56
111
79
81
79
82
80
82
81
82
80
84
82
83
81
83
82
82
83
82
82
81
80
81
82
54
112
80
82
80
81
79
82
81
83
81
81
81
80
82
83
83
83
83
58
112
83
85
83
84
86
85
84
83
82
84
81
82
83
77
76
75
77
78
76
78
79
78
78
80
78
79
79
77
59
101
77
76
78
78
81
79
81
78
82
56
111
81
83
85
86
84
87
55
114
86
84
82
55
112
80
81
76
79
79
78
78
80
79
78
78
77
77
78
75
76
75
74
75
74
73
73
73
73
73
74
73
74
75
73
76
75
77
74
77
76
75
77
77
78
78
76
78
80
79
77
74
74
75
75
73
53
73
73
73
73
74
75
74
77
75
77
77
77
80
78
77
81
80
77
81
81
78
82
80
83
82
81
82
83
84
82
82
82
83
83
82
84
82
83
83
87
84
87
55
124
84
86
83
84
85
82
81
82
80
81
80
80
80
81
49
108
83
83
84
85
83
87
81
81
80
83
80
83
84
84
86
85
84
84
85
83
78
76
79
77
77
77
78
78
77
78
79
53
104
77
77
78
78
77
78
78
78
78
78
78
78
78
77
79
79
79
78
79
80
55
104
78
78
79
78
77
79
79
79
80
80
80
80
78
81
78
79
79
79
78
79
81
78
82
77
79
79
78
78
82
82
58
112
82
81
83
81
81
81
82
82
81
83
83
80
83
54
112
78
82
81
80
80
79
83
82
81
81
81
82
82
80
82
81
80
55
106
77
78
78
77
78
78
78
77
79
78
77
79
76
55
102
76
79
77
79
76
78
78
77
77
77
77
76
75
76
76
78
77
78
79
80
56
109
79
80
60
104
78
81
81
81
82
78
80
81
80
82
80
84
53
113
80
81
54
110
82
84
82
83
83
82
83
80
81
82
83
82
55
110
80
81
80
78
78
80
79
80
80
80
81
82
79
81
81
78
57
106
79
81
79
80
82
81
80
83
81
81
81
81
80
78
77
75
75
76
75
77
75
76
78
78
78
78
55
104
76
80
76
78
78
78
79
79
79
82
80
81
82
82
84
58
109
79
81
81
81
82
81
83
82
83
82
81
81
80
80
78
78
79
78
77
77
76
78
76
76
76
77
77
77
78
78
79
77
79
75
74
75
74
76
73
75
74
74
72
73
70
70
69
72
69
70
70
70
69
70
69
70
68
70
69
70
69
71
71
71
72
73
72
71
72
65
78
71
70
71
72
72
71
72
72
71
71
70
69
70
71
71
72
73
73
73
75
76
77
75
78
78
77
81
52
110
80
77
57
102
80
78
80
79
79
79
83
79
84
61
98
59
104
89
79
82
57
104
79
78
54
105
75
76
55
98
75
75
76
77
77
79
79
81
82
78
81
79
78
78
77
77
77
76
78
77
77
78
78
77
78
78
77
77
78
78
78
78
77
79
79
79
75
74
72
74
73
75
74
74
76
75
76
76
74
76
75
74
78
77
75
77
74
76
76
75
73
75
74
76
74
74
76
75
75
77
76
75
74
74
76
76
74
76
77
75
77
75
76
75
87
64
76
74
73
71
72
72
74
73
74
74
75
73
79
77
79
70
83
78
79
78
81
80
74
52
103
77
79
78
78
47
105
78
78
79
79
78
59
105
78
80
79
80
80
80
79
79
78
77
80
78
80
80
53
108
77
80
78
68
87
79
78
80
80
79
81
79
80
81
79
80
81
80
79
80
81
79
80
77
77
76
78
78
79
79
79
78
83
81
81
61
106
78
80
77
79
76
76
78
79
78
80
78
80
81
81
82
76
84
83
76
84
82
76
84
82
78
85
80
81
82
77
82
81
78
82
80
78
80
79
81
80
81
81
81
81
76
78
76
79
76
77
78
76
76
80
78
80
79
77
77
77
79
77
78
79
78
59
97
78
77
54
102
77
80
77
78
77
78
80
54
103
79
76
77
76
77
77
77
68
83
76
77
77
55
101
77
77
75
47
99
74
75
74
73
75
73
75
75
77
77
78
77
80
78
54
103
79
73
72
72
70
70
70
70
53
83
70
69
69
70
68
61
78
50
88
70
71
71
71
71
70
72
71
69
71
69
70
70
68
71
69
69
68
68
68
68
68
66
68
68
67
69
69
70
71
72
72
72
75
73
75
70
78
79
71
82
73
81
79
77
79
78
76
78
77
73
75
73
73
72
73
72
74
70
71
72
69
71
71
71
70
70
72
71
72
71
71
71
56
86
72
71
71
71
71
70
71
71
71
70
70
71
70
71
73
70
70
73
74
69
72
71
70
72
71
71
72
70
67
69
68
68
68
68
69
69
69
69
68
69
71
73
73
72
72
72
73
73
72
74
72
73
71
73
71
71
70
71
69
71
70
71
72
72
55
87
72
72
72
71
73
72
74
63
82
73
46
96
72
74
73
72
73
73
72
72
71
71
72
72
69
70
71
66
71
68
66
70
68
69
69
68
69
70
71
70
46
94
72
70
53
92
62
79
70
70
70
71
71
70
73
72
72
72
73
70
71
55
67
89
69
71
70
71
72
78
69
70
69
69
69
70
71
70
73
72
75
73
72
73
72
74
71
76
72
74
57
90
72
72
69
68
69
68
68
68
67
68
68
67
68
69
68
69
70
70
70
71
72
69
74
70
71
71
71
72
73
73
73
73
73
73
73
73
74
73
74
75
74
75
73
76
75
61
87
73
73
77
74
72
52
95
76
75
51
92
72
70
52
90
70
70
73
72
71
73
72
72
72
73
73
72
72
72
52
92
71
71
71
71
72
71
72
72
72
55
90
72
72
72
72
73
73
73
75
56
96
73
77
53
95
74
72
51
94
72
71
60
83
71
72
72
72
72
73
71
71
69
70
69
69
70
70
70
71
69
71
70
73
73
72
71
69
75
70
54
90
73
71
70
70
70
69
68
71
68
70
69
70
69
69
70
68
69
69
68
68
69
68
68
67
68
68
67
68
67
67
67
67
69
67
69
69
69
69
69
70
69
70
71
68
70
68
71
68
71
68
69
69
70
69
71
70
70
72
72
70
72
71
70
70
71
70
70
71
71
71
71
70
69
51
39
47
45
46
46
47
47
47
47
48
49
47
48
49
48
49
53
47
48
50
50
47
51
51
50
48
50
49
56
45
50
49
50
51
49
50
50
51
50
50
51
50
50
54
53
53
53
55
53
55
48
61
57
55
56
56
55
56
57
53
55
55
52
56
54
47
64
55
54
58
55
55
54
55
55
53
56
57
54
55
55
53
55
55
53
56
55
53
57
55
54
55
57
54
54
54
56
55
51
62
55
55
56
56
54
51
61
58
55
53
57
55
54
56
56
68
44
55
55
56
49
57
57
58
58
59
60
55
61
51
121
51
60
56
48
65
57
57
56
58
56
55
58
50
64
58
58
58
60
61
58
62
62
61
66
57
49
75
56
60
57
54
58
56
54
55
55
56
56
65
56
57
56
56
59
56
56
59
59
54
61
57
56
57
58
58
59
55
58
59
57
58
59
57
54
57
50
61
54
48
65
56
57
59
60
57
57
61
57
56
63
60
59
60
55
58
58
56
59
58
55
60
57
57
58
56
54
59
58
59
57
58
55
59
56
56
59
56
56
58
55
55
57
59
56
62
58
57
63
59
60
61
56
63
58
55
59
58
57
61
56
48
110
88
89
85
85
86
50
119
83
82
82
81
80
80
79
79
77
80
78
77
77
77
78
78
77
53
102
83
77
77
49
101
89
79
78
75
76
78
75
76
75
77
50
101
86
72
75
75
74
77
76
74
81
72
77
76
74
77
74
76
76
73
76
74
76
74
72
74
73
74
75
74
75
75
74
77
73
77
72
75
75
76
73
83
72
80
82
71
83
79
72
82
81
71
84
81
73
84
54
97
87
71
85
81
72
84
79
73
82
75
81
80
76
60
97
75
81
78
75
82
79
77
81
76
75
80
59
94
75
74
74
76
75
77
57
97
77
78
56
101
77
76
55
100
76
76
53
101
78
76
54
101
77
77
75
77
77
76
78
79
77
80
79
52
106
77
75
53
65
97
73
73
58
91
73
74
54
96
73
72
56
92
72
74
54
95
72
77
76
57
95
81
75
75
77
77
75
77
75
54
99
75
76
77
77
53
104
77
78
76
77
55
103
76
78
75
75
77
54
100
75
75
55
99
75
131
99
74
74
56
95
75
73
75
74
74
74
73
73
56
92
72
73
72
71
73
73
71
72
73
72
72
72
71
72
72
70
72
72
70
72
71
72
70
71
72
70
71
71
71
78
64
72
69
68
68
69
68
68
69
69
69
70
69
70
70
71
72
71
73
73
46
97
76
75
74
75
75
73
74
73
73
74
73
72
73
72
73
73
73
72
73
73
74
73
74
74
74
75
74
73
76
57
94
74
74
73
73
72
67
78
73
71
72
74
72
70
72
73
73
73
73
73
73
74
75
74
74
75
73
75
75
76
75
75
55
96
75
75
74
74
76
75
72
76
75
74
75
75
74
75
53
97
74
73
64
82
72
71
55
90
70
69
70
69
70
70
69
70
70
68
69
70
68
70
69
71
57
84
71
71
71
55
89
71
73
57
87
71
69
71
69
69
70
70
68
71
68
69
70
70
69
69
69
69
68
69
70
69
68
70
69
69
69
69
68
68
68
69
68
68
68
69
68
69
68
67
69
68
68
69
67
68
69
68
68
67
68
68
66
69
68
67
68
67
68
68
69
68
69
69
69
70
69
69
69
69
68
69
70
70
69
70
71
68
70
69
70
70
71
71
46
93
72
73
74
74
75
76
77
74
77
74
76
75
76
74
75
72
71
69
71
69
69
70
68
70
68
69
69
68
70
70
67
71
67
69
69
69
69
67
69
68
67
69
68
67
68
69
68
68
68
69
68
69
67
69
69
68
68
69
68
69
67
69
69
67
69
67
68
68
69
67
69
69
67
68
69
67
69
69
70
66
67
70
66
69
68
68
69
46
91
68
70
71
70
71
72
71
72
72
72
71
73
71
72
71
72
72
71
73
70
73
72
72
73
72
70
71
71
70
71
71
70
71
69
69
70
70
70
69
70
71
69
69
71
69
69
70
69
70
70
69
69
69
70
69
69
69
70
121
85
69
69
53
85
69
69
68
69
68
70
68
70
69
69
70
70
69
69
69
69
69
68
69
68
68
69
68
68
69
68
68
69
68
68
70
67
68
68
68
69
70
69
69
70
70
68
71
69
68
69
68
69
67
68
69
67
68
69
67
68
68
67
69
68
68
69
68
69
68
70
69
68
69
70
68
70
69
69
70
69
70
70
68
70
70
68
70
69
69
68
69
68
68
69
67
67
69
66
68
67
66
67
48
86
68
66
67
68
67
68
68
67
68
69
68
68
69
69
68
70
69
70
70
70
69
70
69
67
69
68
68
68
68
67
68
66
69
66
66
66
68
66
67
69
68
69
70
68
70
70
69
69
68
69
70
67
67
68
68
68
68
66
69
66
67
67
67
66
67
67
66
67
66
66
67
67
67
67
67
68
69
68
67
69
67
68
70
69
68
68
67
69
69
69
70
70
45
69
70
69
71
69
71
71
72
71
72
73
72
74
73
52
96
73
73
72
75
62
86
74
75
73
74
73
72
71
72
72
71
70
71
71
70
70
73
70
73
72
71
73
72
71
71
72
71
70
71
72
72
55
73
52
95
73
73
54
93
74
73
74
74
73
74
74
75
74
74
75
75
76
75
77
75
76
75
75
75
51
98
74
74
73
74
74
76
56
100
78
76
78
76
76
75
74
74
73
73
72
72
71
71
71
71
56
84
71
69
70
69
68
70
69
68
70
67
69
68
58
78
67
68
68
68
69
67
67
68
68
68
68
68
68
68
68
70
70
69
71
71
68
69
69
51
88
68
69
67
70
67
67
68
68
66
67
64
69
67
67
68
68
65
70
68
69
69
68
70
70
70
71
71
72
72
70
70
71
72
71
72
73
73
74
73
76
73
77
75
74
78
77
53
100
79
52
102
75
76
75
77
75
78
78
78
77
80
77
78
79
80
77
80
79
78
80
78
78
78
52
106
78
79
78
78
55
102
78
78
77
80
53
104
78
76
52
100
78
79
78
77
77
75
54
96
73
76
73
75
73
54
99
74
75
54
95
74
54
74
75
76
75
76
78
78
53
98
83
75
80
77
77
57
97
75
74
61
87
74
72
52
96
76
77
78
79
78
78
76
76
78
78
78
79
77
77
78
76
48
104
77
75
73
74
60
89
75
75
76
75
75
76
77
74
77
77
47
101
74
79
76
75
74
77
74
75
77
74
76
75
77
76
76
76
76
79
77
76
77
77
77
76
76
51
101
77
78
76
78
76
59
95
77
76
77
76
76
78
77
78
79
79
78
84
78
79
77
78
78
79
79
81
82
81
81
83
82
48
82
78
78
80
79
81
80
80
54
108
81
80
80
79
80
79
79
80
80
57
104
79
80
79
78
55
104
79
81
78
82
80
79
82
81
79
81
80
79
81
80
78
80
78
78
79
78
75
77
73
77
76
78
77
79
79
79
80
80
81
80
81
80
81
80
80
82
81
81
84
83
83
83
83
84
82
84
83
82
81
81
78
81
80
81
79
81
81
79
80
81
80
60
102
78
77
58
102
76
77
76
76
76
77
78
82
81
81
83
83
83
59
104
79
78
79
77
78
78
78
78
78
73
73
73
74
72
73
75
75
74
74
74
75
77
76
76
77
78
77
78
78
77
77
78
78
75
78
77
76
77
76
77
77
77
77
77
78
77
79
79
81
80
83
82
77
76
77
76
77
78
79
80
79
79
80
79
78
79
77
78
78
77
79
78
79
80
79
58
105
80
82
55
108
78
78
77
77
77
79
79
78
77
58
96
75
76
73
75
75
75
74
75
75
76
75
76
76
76
78
78
77
78
78
76
57
97
76
78
75
76
75
75
75
74
75
73
74
72
74
73
74
74
75
75
76
78
77
77
77
78
77
78
78
78
79
80
79
79
78
77
77
76
76
77
77
75
75
74
74
66
80
72
74
73
72
73
71
74
72
72
72
72
71
73
71
72
73
72
71
71
71
72
72
73
72
75
75
74
76
76
77
76
78
77
76
77
77
60
94
95
77
59
68
68
69
68
69
67
69
69
69
70
71
72
71
72
76
78
78
78
78
79
77
78
77
80
78
79
77
77
78
79
76
77
77
75
76
74
76
74
74
73
75
73
73
74
73
72
73
72
75
72
74
72
73
74
74
73
73
73
73
73
72
72
71
70
71
72
70
71
71
72
70
72
72
72
72
72
72
72
73
73
71
73
74
72
74
74
73
73
73
74
72
74
73
74
72
72
74
74
73
72
74
74
75
75
76
76
74
75
75
59
92
76
75
74
74
73
73
74
74
73
74
74
74
75
75
75
74
75
74
73
74
74
73
74
74
73
74
72
72
71
73
73
72
73
74
74
75
75
75
65
86
75
76
74
76
75
75
75
75
76
76
75
77
76
58
94
76
77
75
76
75
75
74
76
76
77
76
76
77
78
77
76
77
75
75
55
96
66
85
75
78
78
78
80
82
82
85
84
81
81
83
56
110
80
80
78
79
78
79
78
60
99
78
81
81
54
110
81
80
79
80
79
78
76
79
77
77
77
78
78
79
79
77
78
77
75
76
75
74
74
73
73
74
75
74
75
76
75
76
77
77
55
99
75
77
77
76
77
78
76
77
76
77
77
76
77
78
77
76
79
78
78
77
79
78
78
78
76
77
77
57
97
75
75
55
63
98
75
77
76
78
79
77
79
80
80
79
79
79
79
80
78
78
78
79
78
78
79
79
78
79
77
80
78
79
79
80
79
81
80
80
80
55
106
80
80
78
80
80
80
80
81
82
80
83
82
80
81
80
80
80
81
79
80
79
80
80
79
80
78
77
77
79
79
78
79
79
78
77
76
75
74
73
73
71
72
71
71
72
73
72
73
73
72
74
73
74
73
73
75
74
75
76
76
79
77
77
76
76
77
76
75
68
78
72
72
71
70
72
71
71
69
71
59
81
70
69
72
71
69
71
72
70
72
72
72
71
71
71
72
71
72
72
73
74
74
76
76
78
77
76
79
79
78
78
80
79
78
77
78
81
77
78
58
105
79
80
78
78
79
78
79
80
80
80
82
81
82
82
80
82
80
80
81
78
79
77
77
77
76
77
78
78
78
77
61
97
77
77
76
79
78
79
79
78
55
103
77
77
75
78
74
78
76
76
75
76
78
77
77
78
78
77
59
97
75
77
76
76
76
76
74
75
77
75
76
77
75
76
74
76
75
76
75
76
75
77
75
76
75
76
75
76
75
76
75
75
73
72
76
74
74
75
75
74
66
82
72
80
69
74
73
75
73
74
74
73
74
75
73
74
74
81
67
74
74
73
72
74
73
74
74
73
73
72
72
71
73
72
71
73
71
72
71
73
72
72
73
73
74
73
74
73
74
74
73
74
73
73
74
72
73
72
71
72
72
71
74
70
72
72
71
72
71
70
71
70
72
70
72
69
72
72
70
73
72
73
73
73
74
73
73
73
73
74
74
73
73
73
73
73
73
73
72
74
72
74
73
74
73
73
66
83
73
74
50
97
74
74
74
74
73
59
89
74
74
74
74
72
74
72
74
73
75
74
75
76
74
75
76
74
73
73
74
72
73
73
74
74
72
76
73
72
72
69
70
71
70
70
70
69
71
71
70
71
72
71
72
73
72
74
71
73
72
72
74
74
74
76
77
77
57
98
78
78
78
79
79
79
80
80
79
80
56
102
80
79
78
79
80
79
55
105
80
80
79
80
58
101
78
76
76
75
75
75
75
77
77
78
76
79
77
78
79
79
79
80
80
81
83
81
83
83
82
82
84
83
48
106
83
82
80
78
78
74
77
76
78
77
57
103
77
80
55
104
76
77
76
76
76
75
75
88
61
75
75
75
74
74
74
74
73
73
74
74
74
74
72
73
72
71
72
71
71
72
71
73
71
73
73
74
74
73
74
74
75
76
76
76
77
76
76
77
75
75
75
76
76
75
79
74
77
75
75
77
75
76
77
75
56
86
86
77
75
77
76
75
77
76
75
76
76
77
78
77
76
75
75
76
75
74
75
74
74
74
75
74
76
76
76
79
78
79
81
81
56
108
82
83
82
81
83
81
82
82
81
82
81
82
81
81
81
80
79
79
78
79
80
78
79
79
78
78
79
79
79
78
79
77
77
79
77
77
55
95
81
76
76
75
75
76
76
78
79
80
84
84
84
86
87
88
87
87
49
116
86
85
85
82
82
82
49
108
81
85
83
82
83
81
83
81
82
54
113
81
81
80
80
80
80
81
80
80
83
81
81
80
80
80
80
80
79
81
58
106
81
81
80
80
80
79
80
79
80
79
78
78
76
75
76
73
76
76
74
77
76
75
78
77
75
77
78
78
79
78
79
79
79
80
79
79
78
77
77
76
75
77
73
75
75
75
76
76
75
75
75
75
75
75
74
76
76
76
78
78
78
80
79
81
80
80
78
80
80
78
78
77
79
77
78
77
76
78
76
75
79
75
78
77
79
77
78
78
79
79
77
78
79
77
80
78
79
78
80
79
80
79
80
80
80
80
80
80
79
79
80
80
57
106
79
79
78
78
76
78
76
76
74
78
78
78
79
80
79
82
82
80
83
58
108
83
81
83
81
81
82
83
83
82
81
81
80
78
77
75
75
73
73
72
72
72
71
71
70
72
58
84
71
70
72
62
84
72
74
75
75
75
77
77
76
77
79
60
98
75
76
76
75
76
75
76
76
76
78
77
80
80
81
80
83
79
82
80
58
105
80
78
79
79
54
102
78
78
79
82
83
56
109
80
79
78
78
75
78
78
76
79
77
81
79
81
82
83
81
79
81
81
81
79
79
79
79
77
77
78
79
78
78
79
78
79
79
77
78
79
77
78
77
76
79
59
95
77
77
76
73
75
76
76
76
77
76
58
98
79
79
80
56
107
80
79
80
80
78
78
80
78
80
79
79
80
80
78
80
79
79
77
77
77
77
76
77
78
78
77
77
78
78
78
77
79
79
56
105
80
83
82
82
82
81
80
82
56
108
81
80
79
80
79
81
81
57
109
81
81
82
81
57
108
81
80
81
81
78
80
79
76
77
77
76
77
76
77
76
74
76
76
75
75
76
76
75
77
76
76
76
77
75
76
76
76
75
76
75
76
75
76
75
77
76
77
78
76
78
78
76
77
78
74
77
75
74
76
75
75
74
75
75
67
80
74
75
74
76
77
75
76
77
76
75
75
77
74
75
78
77
79
78
78
79
77
80
80
79
79
60
100
79
78
78
48
104
76
79
77
78
78
79
79
81
81
60
104
78
77
76
77
76
76
76
75
76
76
75
73
76
76
75
57
100
77
80
80
81
81
58
108
81
82
82
80
78
81
79
79
80
79
80
81
81
82
80
82
83
83
83
82
82
80
83
81
81
83
82
84
84
83
85
86
84
86
84
82
81
79
77
80
79
77
78
77
79
78
79
80
81
54
111
79
84
83
84
86
84
84
83
82
81
80
80
80
80
79
78
78
77
78
77
75
75
75
77
75
76
78
78
76
79
77
79
78
78
78
78
79
79
79
80
80
79
80
80
80
81
80
61
102
79
78
78
78
78
77
77
77
77
79
79
78
80
70
89
67
90
78
79
76
78
77
76
76
76
77
77
78
77
77
76
77
77
77
77
77
77
74
76
78
75
75
78
78
78
77
79
79
79
76
79
79
57
101
76
76
76
77
76
78
79
79
79
80
81
80
82
83
83
83
83
82
81
82
79
81
81
81
79
81
72
83
79
79
80
80
81
81
81
82
83
56
114
83
85
85
83
85
86
84
85
85
85
82
84
84
79
83
81
80
56
108
79
80
79
80
78
79
79
76
80
78
77
78
80
77
81
81
79
81
81
81
81
80
56
102
77
79
79
79
81
82
83
83
86
86
84
87
86
85
87
86
85
87
87
86
85
85
84
83
84
83
84
83
83
83
84
84
60
107
83
84
83
84
83
84
83
85
84
56
113
82
83
81
83
84
83
84
85
84
83
85
84
84
84
82
84
84
83
84
85
83
86
84
84
84
87
54
117
84
84
83
83
84
84
83
84
83
84
85
58
115
84
86
85
86
85
60
113
84
84
83
83
81
82
82
83
85
84
83
84
83
82
83
83
56
97
88
79
80
79
78
79
81
80
81
83
82
82
83
84
83
85
84
86
82
86
86
83
85
86
84
85
85
84
85
85
83
84
84
82
84
83
83
80
81
80
81
80
81
81
59
109
80
56
100
80
80
81
81
82
82
86
84
86
86
84
85
85
82
83
83
83
83
82
82
81
81
79
81
81
57
108
82
82
83
81
82
82
81
82
82
81
82
80
80
79
78
77
79
79
62
95
76
78
77
76
77
75
77
76
78
77
75
77
77
76
76
76
77
77
77
77
78
77
78
77
77
78
77
77
77
76
76
75
76
75
76
75
75
75
74
75
75
74
75
76
75
74
78
76
77
78
78
77
80
78
79
78
79
79
79
78
79
79
78
80
77
80
79
79
78
80
78
77
80
79
79
79
78
79
80
80
80
80
80
80
81
79
79
80
84
82
55
108
80
77
79
78
79
79
79
80
82
55
109
81
83
81
80
76
77
77
59
98
78
79
77
80
77
79
76
80
79
80
52
104
78
80
79
79
80
79
80
80
80
59
103
79
80
78
78
77
78
79
79
78
78
77
79
78
78
79
78
80
79
81
80
80
82
81
81
81
82
82
83
84
56
111
83
81
84
82
82
83
84
84
84
86
87
87
90
88
89
89
88
90
91
91
89
88
86
86
85
84
55
119
83
85
81
64
78
80
79
79
80
81
81
83
83
78
78
79
79
59
102
80
81
80
80
82
80
82
83
82
81
81
82
80
81
50
107
81
81
81
58
68
108
81
82
80
81
83
82
83
84
82
84
84
82
83
53
115
82
81
59
105
79
80
55
104
77
78
58
96
77
76
76
79
75
78
78
79
79
79
79
78
79
77
80
80
81
80
80
82
82
82
83
81
59
109
82
82
83
83
84
78
80
83
59
106
82
83
83
81
82
57
108
82
82
80
80
80
78
80
78
81
81
82
84
81
58
113
61
97
81
81
80
80
81
79
78
81
80
79
80
80
75
76
76
76
78
77
79
76
77
79
78
79
59
100
78
79
78
79
81
80
80
80
81
81
77
80
78
78
78
78
79
79
78
81
80
70
91
79
81
80
79
79
77
75
75
86
71
75
75
75
75
75
75
77
76
76
76
78
75
76
77
75
75
75
74
78
76
76
75
77
78
79
79
79
81
81
79
79
83
85
88
84
88
88
88
89
87
88
88
87
87
89
89
87
87
86
85
85
84
83
83
83
59
105
83
83
82
83
58
109
83
84
83
84
85
84
86
87
85
57
114
86
87
84
83
84
80
82
81
83
81
83
80
83
81
80
82
81
83
82
57
113
83
82
80
82
82
83
82
83
85
83
88
90
90
90
90
89
90
91
89
90
90
87
89
89
90
89
90
90
90
89
89
88
89
90
89
90
89
89
89
89
87
88
88
87
89
89
90
88
89
90
90
89
87
89
88
88
89
90
89
89
89
90
89
88
90
89
88
89
95
81
89
88
87
88
88
88
89
88
89
90
91
103
97
84
89
90
88
89
86
87
88
87
89
88
87
86
86
88
86
84
84
86
88
86
88
89
90
91
90
90
92
92
90
92
92
91
89
87
89
88
87
88
90
90
91
93
92
90
94
94
93
96
97
95
97
99
98
98
99
101
97
100
101
98
96
95
93
92
92
91
88
91
87
87
87
88
88
89
88
86
89
89
89
90
89
90
87
87
86
86
88
90
90
92
91
95
96
95
96
94
96
97
97
97
95
97
97
98
98
99
97
98
96
97
97
95
97
95
97
95
95
92
93
94
94
96
96
95
98
98
96
97
97
98
96
97
98
95
98
98
98
98
97
98
99
99
96
98
99
97
98
98
96
99
99
97
97
97
98
97
99
95
97
98
96
97
97
96
96
96
97
93
96
94
94
93
91
92
90
90
90
92
91
92
93
93
93
92
93
92
91
90
89
90
89
90
90
90
89
91
92
90
92
94
93
95
95
95
95
91
92
93
92
92
93
94
94
94
94
91
93
92
92
91
90
88
90
89
88
88
89
89
91
93
93
95
96
95
96
98
98
97
98
96
98
95
96
98
95
96
96
95
93
93
94
93
92
92
91
92
90
92
91
61
125
91
91
91
91
91
90
91
89
90
90
91
89
91
90
89
90
90
90
88
91
91
92
92
92
93
93
94
94
92
95
95
92
94
92
91
90
89
90
89
88
90
90
90
92
93
93
94
90
56
128
88
88
87
85
88
88
88
90
92
90
92
93
92
93
92
93
94
94
92
95
93
95
94
95
94
94
92
90
92
91
90
92
91
90
90
89
90
87
88
87
87
88
88
88
89
87
87
89
87
89
88
91
91
90
92
94
92
93
95
95
95
95
92
93
92
93
92
92
93
94
94
94
94
92
92
91
90
89
90
88
91
92
92
92
94
95
93
97
97
95
99
98
98
96
98
98
97
97
97
98
95
98
97
97
96
99
96
100
100
97
96
96
96
95
95
92
96
96
95
92
93
93
89
92
91
91
89
90
88
87
85
86
88
88
91
92
92
91
94
91
93
93
93
92
93
92
90
90
90
90
91
90
89
89
90
91
92
93
93
90
93
91
92
92
94
94
94
93
99
84
91
83
89
89
88
88
84
89
75
81
84
83
84
84
84
84
84
82
85
84
86
85
86
84
81
89
89
89
88
89
90
90
90
90
89
87
88
85
86
88
87
86
88
90
91
92
92
93
91
92
91
92
92
92
91
89
92
92
91
90
90
89
86
89
87
86
87
86
87
86
88
89
89
91
91
92
93
94
95
92
97
95
94
97
97
98
95
90
107
97
98
95
97
97
97
97
95
98
97
98
98
99
96
94
92
92
92
97
97
97
96
95
95
93
92
94
94
92
92
92
89
92
91
88
92
92
88
92
91
90
92
91
92
92
95
96
96
97
98
97
97
96
98
98
99
99
98
98
95
95
91
94
90
90
93
93
96
96
98
96
96
92
94
98
98
96
103
102
102
100
99
95
97
94
99
98
98
97
95
99
96
96
93
95
94
94
93
93
94
95
93
96
96
96
94
96
95
97
96
95
98
96
96
99
97
97
97
97
95
97
98
98
96
97
96
95
97
95
94
95
94
94
93
95
96
96
93
96
97
97
96
97
95
95
93
91
92
59
122
89
88
87
87
86
86
87
88
88
87
88
88
86
86
85
87
86
85
87
86
87
87
85
86
87
86
86
85
86
86
87
86
86
85
85
87
87
87
88
88
90
90
90
91
92
91
92
93
93
91
93
94
95
92
94
94
91
93
93
93
94
90
92
92
91
90
88
89
88
89
89
87
89
88
88
87
87
86
85
87
84
87
88
87
89
90
91
90
91
92
92
92
92
92
92
90
90
92
91
90
91
91
66
118
91
89
90
91
88
90
90
90
91
90
92
93
93
93
93
92
95
91
94
94
93
94
70
118
92
90
86
88
85
86
84
82
82
83
82
83
83
83
84
86
85
87
88
87
87
87
87
87
85
86
88
86
87
88
87
87
87
85
88
88
88
89
90
91
90
92
91
91
91
92
91
91
91
89
90
91
91
90
91
90
90
88
91
90
92
91
92
93
93
90
64
126
89
91
90
88
86
85
87
87
83
88
90
83
88
85
83
86
91
62
127
91
87
90
88
86
83
88
87
88
89
89
89
90
90
90
89
88
88
85
86
87
88
87
88
88
87
85
85
85
89
90
88
96
95
97
95
94
93
91
94
93
90
90
89
87
91
91
90
89
85
87
85
84
83
85
86
86
85
83
89
89
90
88
60
125
86
87
88
88
87
92
57
128
95
94
92
92
94
94
94
95
98
97
94
97
98
98
96
94
93
96
95
94
96
93
98
96
97
96
92
95
94
96
93
98
96
98
96
98
98
99
98
96
97
94
96
97
97
97
96
93
95
95
95
99
99
99
97
99
97
100
100
97
100
101
101
96
101
101
100
98
93
97
98
98
98
96
92
101
101
102
101
98
98
96
96
95
94
94
93
91
91
90
93
92
91
95
94
94
93
93
91
94
93
92
94
93
93
92
88
92
93
94
94
94
98
97
95
99
99
97
95
94
91
88
91
91
93
95
90
95
94
96
94
68
126
94
96
94
96
97
95
92
93
93
92
96
97
94
97
99
98
95
99
99
98
96
92
95
96
92
96
96
94
96
96
93
96
93
92
97
96
97
93
97
94
95
94
93
93
91
93
94
94
94
96
92
98
97
96
96
96
99
99
99
97
95
97
97
94
98
101
97
98
99
96
99
96
97
93
90
93
91
93
94
59
129
92
94
90
90
89
94
94
97
94
99
100
99
98
101
102
102
101
103
100
102
102
100
100
102
101
99
102
101
101
102
103
101
99
102
101
101
101
99
100
102
98
99
67
54
55
58
63
67
66
52
142
107
104
100
96
99
100
95
97
68
126
92
93
92
91
93
94
90
96
95
93
95
94
93
92
60
128
89
88
88
85
89
88
87
84
84
86
85
85
86
84
86
85
87
85
89
91
92
91
98
95
98
94
67
132
93
97
94
94
94
98
97
100
99
98
98
97
99
99
97
101
103
100
104
104
101
101
103
102
100
102
103
101
102
102
101
97
101
100
98
100
100
98
102
96
99
98
98
100
97
93
96
96
96
96
97
96
95
91
95
91
93
93
90
95
96
97
96
96
96
95
94
91
92
89
91
90
90
86
89
87
90
91
91
92
88
90
90
90
90
90
86
93
91
93
93
90
89
90
92
91
93
89
92
96
95
92
95
95
94
95
95
96
95
94
94
95
93
95
97
98
100
97
97
95
91
90
93
87
95
94
96
97
98
97
96
92
94
90
94
94
88
91
92
90
89
91
92
92
93
93
89
93
92
88
92
91
92
92
92
89
91
93
92
93
92
88
92
90
93
93
95
93
94
94
88
92
92
91
88
90
90
90
90
90
85
88
88
88
88
86
89
87
86
88
88
87
86
86
86
85
82
85
83
84
88
92
93
93
90
94
93
89
90
89
89
88
84
90
87
87
87
86
86
88
89
86
84
88
91
92
95
92
96
97
97
98
98
99
97
97
99
99
100
104
103
102
99
102
102
101
101
103
57
144
99
96
96
98
58
142
94
98
95
97
97
98
95
93
92
96
95
97
97
98
97
99
97
95
95
98
98
97
95
96
98
96
99
100
98
97
97
99
101
100
96
101
101
100
100
99
99
99
100
98
98
96
98
96
97
97
94
97
98
97
96
100
101
97
96
99
97
93
94
94
92
56
126
86
88
85
86
85
85
88
88
89
88
88
87
86
87
87
87
88
87
87
87
86
86
86
87
84
87
86
89
88
85
90
89
88
85
90
90
89
89
93
95
94
95
90
91
95
59
133
90
96
93
93
97
99
95
98
100
99
100
97
96
90
91
92
89
93
94
94
53
139
94
96
65
127
93
93
94
96
97
95
97
99
95
97
98
95
99
100
100
97
101
101
99
101
99
98
99
97
96
97
96
94
96
62
78
124
94
92
92
90
91
90
90
90
94
94
95
93
96
97
94
97
100
95
98
98
100
97
100
101
99
97
101
101
100
101
98
100
101
97
101
102
98
102
100
100
100
101
100
98
95
102
104
103
104
102
102
99
100
101
96
100
99
97
99
100
99
97
97
98
99
98
97
99
100
97
100
100
99
100
99
99
99
98
98
100
99
99
102
54
150
98
98
99
98
98
94
99
97
98
99
100
98
100
99
98
100
99
98
98
97
96
94
90
93
93
92
93
93
93
91
94
94
92
94
95
92
95
94
93
94
93
93
92
94
96
93
97
98
95
97
98
98
98
99
99
98
99
100
97
100
98
95
97
93
96
94
95
96
97
96
97
98
96
100
99
96
99
95
98
98
96
98
94
95
94
93
92
92
90
90
88
85
85
83
82
80
81
82
82
84
84
85
84
84
85
86
88
88
91
90
91
97
96
92
91
99
96
97
98
97
100
100
98
100
100
98
98
98
98
95
95
94
94
94
95
95
92
93
91
88
88
89
87
87
87
86
89
88
87
90
93
90
90
93
90
92
94
94
94
96
97
94
97
97
95
98
98
95
95
98
99
99
99
99
96
99
98
97
98
97
95
92
94
94
61
131
95
94
96
93
95
95
95
94
93
91
94
92
94
57
131
91
88
91
58
121
89
90
87
87
87
88
88
88
90
59
126
90
93
93
90
89
89
88
89
88
87
85
85
84
58
115
84
87
86
87
89
87
89
90
92
91
91
93
92
93
96
96
93
97
96
93
96
95
94
95
96
93
94
94
93
94
95
93
93
93
95
93
93
95
92
58
129
90
87
88
86
89
88
89
91
92
90
93
92
92
92
94
94
94
96
98
94
97
68
125
95
94
69
120
92
92
91
91
93
94
92
95
94
94
95
96
93
95
96
94
96
97
95
96
98
95
94
97
94
96
96
94
95
96
95
95
93
91
89
92
89
91
91
91
89
91
89
90
92
92
92
90
58
130
95
95
95
95
95
95
94
97
96
97
96
97
95
97
97
98
96
94
96
97
94
96
96
92
94
92
91
88
90
88
92
91
93
94
93
94
92
58
130
93
92
90
91
90
90
92
91
90
94
93
93
93
96
94
95
97
97
94
97
95
93
98
95
95
97
97
96
95
98
97
95
84
54
52
59
58
58
58
64
54
68
58
126
104
104
102
98
100
99
96
97
57
136
92
95
95
93
96
97
94
98
98
98
97
99
95
97
96
94
96
95
94
93
94
93
94
88
93
92
93
94
95
94
95
94
94
94
92
92
95
95
96
95
98
99
98
96
100
100
97
100
99
98
97
99
99
96
99
99
96
98
97
96
94
93
91
91
90
87
88
88
91
92
92
95
96
93
96
93
95
95
93
92
92
94
92
91
92
89
91
90
91
93
91
70
119
94
92
94
94
90
96
97
98
95
98
98
95
96
96
94
96
92
94
94
94
94
95
92
69
122
91
94
94
93
92
92
93
91
91
94
97
98
100
98
100
98
96
97
96
96
97
94
98
97
97
97
99
97
97
95
98
98
97
96
96
97
95
92
93
94
93
93
93
92
92
89
88
89
90
89
90
93
92
96
96
97
94
97
97
93
98
96
96
95
95
96
95
95
95
91
93
94
96
92
96
96
94
96
99
99
97
101
103
100
101
102
100
71
122
102
97
101
101
100
101
101
97
102
96
101
100
101
101
98
102
101
101
97
100
98
99
97
98
100
100
101
98
102
103
97
100
97
96
95
97
93
96
96
97
97
94
94
92
93
93
95
94
95
94
92
91
93
95
95
96
95
95
95
93
91
89
92
92
91
90
91
89
95
90
95
90
91
88
89
88
91
89
89
91
91
89
90
91
92
90
93
92
89
93
93
94
92
94
95
93
93
91
95
92
92
93
94
94
93
93
92
94
93
94
94
92
93
92
89
94
63
127
92
93
94
96
94
98
97
98
96
99
99
97
96
100
99
99
94
97
98
100
96
100
101
97
97
99
97
98
97
67
130
96
98
91
97
97
94
98
96
96
92
95
93
93
94
93
94
95
95
93
96
95
94
98
98
98
99
101
101
98
100
101
99
97
98
99
96
98
97
95
100
99
98
100
100
96
97
94
92
93
92
94
97
94
96
97
58
140
96
97
95
96
94
94
93
92
93
94
94
92
95
96
95
92
97
96
95
94
96
97
95
100
101
101
98
104
104
99
104
103
101
104
105
103
106
103
104
102
98
99
100
99
98
95
98
99
98
99
100
97
101
100
100
98
101
101
98
97
99
100
97
97
96
98
100
101
102
104
104
103
97
100
98
100
98
97
102
103
101
102
100
99
97
99
99
100
99
95
98
98
99
99
95
98
99
99
100
99
97
93
99
100
100
102
101
98
98
99
99
98
98
98
95
95
96
92
91
99
98
98
99
102
100
103
104
104
102
102
103
99
103
104
104
106
102
107
106
106
103
105
105
105
102
97
101
97
100
97
97
96
94
92
90
88
85
84
81
81
80
77
79
76
76
76
74
75
74
74
73
72
75
74
73
74
74
72
72
71
74
71
73
72
73
70
75
75
74
78
78
79
78
75
82
80
80
81
84
82
56
109
82
82
80
82
85
84
87
88
84
86
90
88
85
86
86
90
91
91
90
90
92
93
94
89
95
94
90
94
92
96
94
94
93
92
93
92
91
92
94
91
91
87
87
85
85
87
87
87
86
85
85
86
88
86
91
92
92
90
97
95
93
99
96
98
96
95
99
96
96
97
98
94
98
96
94
97
95
94
94
93
93
94
93
97
98
100
99
97
96
91
92
94
60
131
90
94
93
93
95
94
96
59
133
93
95
93
96
95
97
92
96
95
96
94
93
94
93
93
93
94
60
131
91
91
90
87
89
89
86
88
89
87
92
92
92
91
94
94
92
95
97
95
98
98
97
94
92
97
95
94
92
95
93
95
97
98
96
98
98
93
97
95
93
95
92
90
86
90
89
91
89
96
93
93
94
90
90
58
130
91
92
91
93
90
93
92
94
91
78
111
94
93
95
94
94
93
90
92
93
93
93
93
93
93
95
97
97
94
97
97
94
94
95
92
94
93
93
90
94
95
94
94
96
97
96
93
94
94
90
97
97
99
98
97
97
99
99
98
97
99
98
96
99
101
97
97
100
101
102
98
102
99
97
98
96
94
96
95
95
95
94
97
96
96
93
71
113
91
87
88
90
91
92
93
94
95
94
93
91
91
92
94
70
130
96
98
98
96
95
98
98
100
100
99
101
99
101
99
98
97
98
99
95
96
92
94
93
94
91
91
97
96
93
98
98
98
96
95
96
96
95
93
92
92
90
91
91
91
91
90
93
94
93
94
95
93
94
93
91
94
94
94
94
92
95
95
92
93
96
96
93
95
97
95
94
93
95
94
93
93
95
92
96
94
94
94
92
92
91
88
89
89
86
86
85
87
87
85
86
84
84
83
85
87
87
86
86
88
89
88
88
88
90
91
88
92
92
90
93
92
93
90
92
92
89
92
87
88
86
87
87
87
85
88
86
87
86
88
58
119
84
87
85
85
84
85
85
85
83
86
85
84
86
86
85
85
85
86
85
84
84
83
85
86
57
122
86
87
87
82
85
82
83
80
80
81
80
78
79
76
76
77
75
77
76
76
74
74
75
77
76
77
78
79
78
79
81
80
81
80
80
82
83
82
85
85
84
83
84
85
83
84
83
59
73
106
80
83
80
81
79
82
80
82
80
80
81
80
80
78
79
79
80
78
80
78
76
78
76
75
69
85
76
78
77
77
78
76
75
76
78
77
77
79
77
78
79
78
79
79
78
80
80
80
79
78
80
79
78
74
74
74
68
80
75
75
75
74
77
81
79
81
80
80
57
99
79
80
79
55
99
78
79
79
79
79
78
77
77
77
77
76
78
79
55
98
80
79
81
82
82
83
83
84
83
82
82
82
81
80
81
81
80
81
81
80
80
81
80
79
81
80
81
81
81
80
80
81
58
108
79
82
77
79
50
46
47
50
46
49
50
51
52
52
55
54
56
57
63
52
59
51
55
55
55
59
55
59
58
62
60
59
57
63
61
70
58
63
65
59
68
55
65
62
62
66
53
66
68
54
63
59
65
59
114
95
92
89
89
88
84
86
86
83
55
120
85
54
124
85
59
119
84
88
87
86
89
90
91
90
92
93
92
91
92
92
90
90
88
54
131
88
90
91
94
55
137
94
95
90
91
92
90
91
91
90
91
93
93
92
93
92
91
91
88
92
91
92
93
92
92
91
90
90
90
87
85
85
87
85
86
84
86
86
85
86
88
91
90
91
93
95
92
93
94
91
93
91
94
91
94
94
96
94
97
95
96
94
94
92
88
87
89
89
90
91
91
91
93
94
95
93
95
95
94
95
91
94
94
94
93
93
92
92
92
93
92
93
94
57
118
96
97
93
94
94
93
91
91
90
90
91
89
91
58
130
92
92
91
59
125
91
92
89
93
92
93
93
93
94
94
94
93
92
91
91
92
93
92
94
95
94
95
95
97
95
94
96
93
94
95
95
94
94
85
85
83
85
87
87
89
87
89
92
92
93
91
95
95
94
94
92
93
92
90
87
87
86
85
58
118
83
85
79
82
82
83
61
114
85
86
88
90
89
87
91
86
87
84
86
86
84
84
84
83
83
80
80
80
79
80
80
81
79
79
81
80
80
72
72
72
72
72
72
73
73
72
73
73
72
74
72
72
72
74
71
72
71
72
72
71
71
73
71
71
71
71
72
54
94
73
74
74
72
74
73
73
74
74
73
76
75
72
72
72
71
73
71
71
71
71
70
70
71
75
67
70
72
71
72
72
72
71
74
74
72
73
74
72
72
74
72
72
73
74
73
73
74
74
74
75
74
76
75
77
74
76
76
74
76
74
75
74
75
77
78
78
78
78
78
76
77
76
75
74
74
74
73
74
74
74
74
76
74
75
73
75
73
75
54
98
74
75
74
76
76
75
57
97
76
75
76
73
75
75
74
73
49
99
76
77
76
76
77
77
78
77
78
79
77
80
77
78
76
77
76
55
76
97
57
102
76
79
55
103
77
79
56
58
89
99
81
81
56
106
78
79
59
101
78
79
56
108
79
80
81
82
81
82
83
82
83
82
83
57
112
82
83
81
80
81
80
80
78
80
80
54
111
80
81
79
79
80
81
81
80
82
81
81
81
81
80
79
81
81
82
54
116
83
85
83
86
85
84
85
86
84
83
84
85
84
84
85
85
84
82
56
113
81
82
54
113
82
81
57
103
90
83
84
56
117
84
84
82
83
60
104
81
83
82
81
84
85
86
58
71
117
87
90
53
124
84
85
84
83
57
112
82
83
83
82
82
82
81
80
81
81
82
82
81
82
81
82
83
82
81
84
81
81
79
78
77
79
78
78
78
80
80
81
81
82
82
79
81
80
80
79
80
80
79
68
92
79
79
80
79
79
79
78
77
77
76
75
75
75
75
76
55
69
103
78
81
80
80
57
108
80
80
81
79
81
77
78
78
79
78
80
81
81
81
83
56
70
52
49
51
54
55
58
54
58
58
60
59
62
59
59
67
53
75
114
98
95
92
91
89
88
87
87
86
86
86
56
121
84
85
83
85
83
83
84
84
83
84
82
82
81
83
81
81
82
83
82
83
83
84
84
84
83
56
114
82
82
83
84
82
83
84
85
84
85
83
82
69
69
67
68
60
63
61
53
55
52
42
63
50
54
54
53
53
54
55
55
53
54
54
54
51
52
54
54
54
53
57
56
56
55
57
56
57
58
54
50
59
52
55
53
52
54
53
53
56
55
54
55
54
50
61
57
57
59
57
66
53
62
59
61
67
54
62
54
63
64
61
112
94
91
93
91
90
88
87
88
88
87
86
87
86
85
86
85
86
86
85
85
86
86
84
87
87
85
89
85
88
87
88
90
86
89
89
58
123
87
87
84
84
83
84
84
84
86
85
86
85
84
85
84
84
82
82
83
86
85
85
88
85
87
86
84
84
82
84
85
82
84
82
80
81
79
80
78
77
79
77
77
77
77
77
76
77
77
77
78
77
78
78
78
78
77
78
76
78
77
77
78
76
79
57
104
61
96
80
79
79
80
76
79
78
80
79
80
81
80
82
83
81
83
83
82
83
81
82
84
84
84
86
88
84
61
119
88
86
87
91
56
134
91
91
90
55
129
88
89
88
86
89
89
54
127
87
90
88
89
87
55
128
88
90
90
90
88
91
92
91
90
91
90
92
92
90
93
91
90
90
88
87
88
87
86
88
87
88
87
86
87
86
85
84
84
83
83
84
85
85
87
87
88
88
90
92
90
91
92
89
93
92
91
90
92
91
90
91
92
89
91
91
90
90
91
90
90
91
88
61
122
88
89
56
126
88
89
58
126
89
88
88
87
61
117
87
89
86
88
88
87
89
89
89
89
55
129
87
91
56
125
87
88
85
88
89
90
88
91
92
93
92
93
95
96
94
93
93
93
90
92
92
90
91
92
92
91
92
93
90
93
94
93
90
91
90
89
89
90
90
88
91
91
90
92
92
90
93
93
91
92
92
89
93
92
91
92
93
91
92
91
90
89
91
91
89
92
91
91
94
91
93
94
93
93
92
91
89
92
91
89
88
88
87
88
89
90
91
91
94
94
96
94
94
96
96
97
94
97
97
98
95
97
95
95
92
93
93
94
86
87
86
87
84
88
86
83
85
85
84
86
86
84
86
87
88
88
89
88
87
80
80
79
80
70
90
81
80
81
80
83
81
84
82
83
84
82
83
83
84
85
85
84
85
85
85
85
86
86
86
57
120
85
86
84
85
85
85
84
84
84
84
85
56
115
83
83
84
83
83
84
84
82
83
83
82
82
83
83
82
83
84
82
84
84
85
83
85
84
85
85
84
83
82
83
81
83
83
82
82
84
83
83
82
82
82
81
81
81
80
80
80
79
80
79
80
79
79
80
79
77
80
79
80
82
82
82
84
83
82
81
81
81
82
60
108
83
83
83
86
85
85
87
60
119
87
85
87
61
115
86
85
85
82
83
83
82
83
82
82
83
83
57
111
83
82
82
81
85
82
81
81
82
81
79
84
79
81
81
81
79
81
80
80
80
80
79
78
79
81
77
79
80
80
80
79
81
81
82
81
81
81
82
81
80
83
81
81
81
81
83
56
113
83
82
82
82
82
81
83
55
111
83
83
81
81
82
82
81
83
83
82
83
82
83
83
80
84
81
84
82
80
81
80
80
80
80
80
79
81
78
79
80
78
78
79
78
80
81
81
82
83
83
86
84
86
86
86
84
85
86
83
84
84
83
83
83
82
86
83
84
83
84
58
109
82
82
57
108
82
53
113
81
83
82
81
83
83
58
111
84
84
84
84
84
85
86
86
87
87
89
87
88
88
88
53
123
85
85
83
84
83
84
83
83
83
84
83
83
82
84
83
82
84
83
85
85
84
84
87
85
85
85
86
85
85
85
84
85
84
83
84
82
81
80
68
89
80
80
81
80
80
81
82
82
82
81
83
82
56
111
77
80
81
80
80
81
56
110
81
81
81
81
80
80
80
81
81
81
82
82
80
82
81
78
81
80
79
79
79
80
79
80
79
81
79
80
80
82
82
82
85
84
83
85
84
84
85
57
113
82
83
67
95
81
82
81
82
82
83
81
82
82
81
81
81
56
108
80
80
57
102
78
80
78
78
80
79
80
81
79
80
80
81
79
82
81
81
83
80
80
56
108
80
81
80
80
80
79
79
80
78
79
78
78
77
77
77
78
78
77
79
81
80
82
82
81
59
67
105
81
80
80
80
80
80
80
81
81
81
83
82
82
59
108
82
82
82
83
57
109
82
82
58
108
82
82
56
112
82
83
62
105
82
82
80
81
51
107
80
79
80
79
80
79
80
79
79
79
79
79
79
79
53
101
77
78
78
77
50
103
79
78
80
80
80
81
81
82
58
109
82
82
81
81
79
80
80
79
78
80
80
79
81
80
81
80
81
82
80
82
81
81
81
82
82
80
82
82
81
82
81
83
81
83
83
82
83
83
82
80
81
81
80
80
79
79
80
79
79
80
81
80
82
81
81
81
80
81
79
80
79
79
78
78
79
76
80
79
79
79
78
78
56
103
80
78
77
79
77
76
77
78
77
80
79
81
81
81
80
82
82
79
81
79
78
78
77
76
77
77
77
59
80
80
81
82
83
82
82
83
83
82
82
83
82
83
81
82
81
82
82
83
83
84
84
83
83
55
115
84
83
83
81
80
80
79
80
80
83
84
82
80
88
82
82
83
81
81
80
82
81
84
85
86
85
85
83
85
69
79
81
82
57
108
81
80
56
106
79
78
79
80
62
80
92
57
103
80
80
80
80
79
79
80
81
79
78
78
79
79
80
81
79
83
81
82
81
83
83
82
83
84
84
84
85
85
83
85
86
59
113
85
83
84
85
83
84
85
83
83
85
85
83
85
85
84
86
85
83
86
85
83
84
85
83
83
84
82
84
82
82
81
83
81
81
83
80
82
81
81
56
107
80
79
57
104
79
79
79
79
79
79
78
79
77
78
79
79
78
79
79
79
79
78
79
79
80
83
76
81
81
83
81
80
80
81
80
80
81
80
78
80
80
79
57
101
78
79
79
80
78
80
80
80
80
81
82
80
80
78
79
79
79
77
78
75
77
76
76
76
77
76
77
77
77
76
78
77
77
77
78
77
77
78
76
79
78
78
79
79
81
80
80
56
107
80
79
59
104
79
80
80
81
80
84
85
84
86
88
86
54
124
84
86
84
85
83
56
110
82
79
56
106
79
79
58
100
79
56
104
79
83
83
83
81
80
80
81
81
80
82
84
81
85
84
83
83
84
83
84
84
83
84
82
83
82
83
81
83
81
82
83
82
81
84
81
81
81
81
82
81
79
60
101
78
80
80
78
79
79
80
79
79
81
81
80
81
81
81
83
84
83
85
86
85
84
86
84
84
83
63
102
81
80
56
108
80
81
81
83
82
84
85
86
59
114
85
85
85
84
82
82
57
111
82
83
56
71
112
83
85
84
84
58
111
85
84
84
85
83
84
55
116
81
83
83
81
83
83
57
112
82
82
81
82
79
80
80
80
81
81
79
80
79
79
80
78
79
79
78
79
78
80
78
79
79
79
78
80
80
79
81
81
80
82
82
82
82
81
83
83
56
112
82
81
81
80
57
104
78
78
58
97
76
75
74
83
67
75
75
71
77
74
74
75
74
74
75
74
73
75
74
75
75
77
75
76
77
75
78
75
77
77
77
76
78
77
77
78
79
79
80
81
82
80
83
82
82
83
83
84
85
86
82
59
113
84
85
55
116
83
83
83
83
81
82
83
82
83
85
56
114
85
83
84
84
60
105
81
62
91
75
76
75
75
74
75
76
76
76
76
77
78
78
79
81
83
84
82
84
83
82
83
82
83
82
82
83
83
83
81
82
83
80
83
81
82
82
81
82
82
83
82
84
82
77
78
78
77
81
79
80
59
107
81
52
114
80
81
79
81
56
67
113
84
87
84
86
56
118
84
85
84
84
85
85
84
85
85
55
114
80
85
83
83
56
113
83
83
83
83
83
82
83
82
81
80
79
80
78
79
77
79
78
78
77
77
79
78
62
93
84
86
87
86
90
89
88
90
90
89
90
90
90
90
90
90
91
89
90
89
89
89
89
89
88
86
86
85
85
85
84
84
83
81
80
80
80
80
80
57
102
79
80
78
79
78
80
80
80
79
79
78
78
78
79
79
81
82
83
82
85
85
84
85
83
81
82
80
80
80
78
66
91
79
81
80
79
81
79
79
79
79
78
77
78
78
77
77
76
79
76
76
76
74
76
77
73
77
77
77
78
79
80
82
81
83
83
84
84
84
86
84
86
84
57
116
84
86
84
87
86
88
89
89
90
91
89
90
90
89
89
90
89
89
89
90
88
90
89
89
90
90
88
90
89
87
89
88
86
87
87
86
87
87
87
86
87
87
86
86
86
85
88
87
87
89
88
86
90
86
87
88
88
87
89
88
87
88
89
90
90
90
91
89
90
88
85
86
52
114
86
85
85
87
88
87
89
89
87
90
89
89
83
83
84
83
83
85
85
83
86
85
85
86
88
87
86
89
89
87
89
90
89
88
90
90
90
90
92
91
91
91
93
94
93
93
94
93
91
93
93
92
91
91
92
90
92
92
91
91
92
93
93
93
92
89
90
86
67
113
87
89
89
87
90
90
89
90
90
91
89
91
92
90
92
90
91
92
91
91
94
92
91
93
90
89
92
91
91
87
87
86
88
87
87
88
88
87
89
89
87
88
85
84
82
84
84
85
84
86
59
116
86
86
84
86
84
83
82
82
84
84
85
86
86
86
86
86
59
114
83
81
81
80
80
79
78
79
79
78
78
79
78
80
78
78
80
79
79
79
79
80
78
79
77
80
80
80
81
79
81
81
80
80
79
80
81
80
82
60
105
80
84
82
81
83
84
82
83
84
83
82
84
55
113
82
83
83
82
57
111
64
102
82
82
81
79
79
79
81
78
77
79
78
77
78
78
78
78
77
76
76
75
74
73
73
74
72
74
72
73
73
74
75
75
77
76
78
79
81
80
79
80
79
83
79
80
80
77
80
79
77
75
76
74
75
74
74
74
74
75
77
71
75
74
76
75
76
74
76
74
75
75
74
73
74
73
73
74
72
74
72
74
71
76
73
73
74
75
73
74
73
73
74
73
73
73
74
72
72
71
72
73
72
72
74
72
75
73
74
76
76
76
75
77
77
77
78
77
76
77
76
76
77
76
77
64
91
75
78
75
76
76
76
76
76
77
78
79
79
80
81
82
84
84
83
82
82
57
114
80
83
83
83
84
86
87
90
57
125
87
86
55
116
85
87
85
84
57
109
80
85
83
82
58
109
82
83
56
111
82
81
81
80
79
82
82
82
83
81
83
83
81
80
80
78
79
78
77
79
78
80
81
83
82
82
84
81
82
85
81
84
84
86
85
85
83
84
68
99
75
91
82
82
81
81
81
79
80
79
77
80
78
79
78
81
58
109
81
77
77
76
77
76
76
77
76
77
77
77
78
78
77
78
78
76
77
76
75
75
76
75
74
75
74
74
73
75
73
74
74
60
91
74
77
73
75
75
75
76
76
76
76
75
76
72
72
72
73
71
71
71
72
72
72
73
72
74
72
72
72
73
73
70
69
70
69
69
69
69
68
69
68
69
68
67
68
68
47
88
67
67
67
67
69
66
67
67
66
69
67
69
68
68
68
75
61
69
68
68
68
52
84
69
69
69
69
70
68
69
69
50
87
68
69
68
68
68
67
67
68
68
46
90
59
76
67
68
66
67
47
88
69
68
69
70
47
90
69
70
70
69
52
87
70
69
71
69
52
91
71
71
71
71
70
71
71
70
71
70
70
70
71
69
70
70
69
70
69
70
71
70
71
72
72
73
73
75
74
76
76
77
77
79
77
79
78
79
80
81
81
79
81
82
80
80
80
80
80
82
58
106
81
82
56
108
81
79
56
108
79
83
80
82
82
55
111
83
81
54
110
81
80
53
108
78
80
55
109
80
83
82
85
85
87
88
89
88
90
91
88
89
90
88
88
89
88
89
88
89
89
88
89
89
89
88
90
87
89
87
89
89
87
89
88
87
89
88
89
90
88
89
91
88
90
89
89
85
83
84
83
84
84
84
84
85
85
86
86
85
84
86
87
85
89
89
88
89
90
89
90
90
88
90
90
90
91
91
89
92
88
90
90
90
89
91
90
90
91
88
88
87
87
90
92
91
94
94
95
96
95
94
94
93
93
93
92
92
93
89
91
91
90
91
92
89
91
91
90
90
90
92
92
89
92
92
90
91
92
90
90
90
89
90
90
87
90
88
88
89
90
88
90
90
92
89
93
93
92
93
93
94
92
94
93
94
92
95
94
92
95
95
94
92
95
96
94
96
95
95
90
90
91
89
89
87
87
86
85
87
86
86
85
87
86
84
87
86
86
88
89
87
89
88
88
88
89
89
87
88
86
87
84
83
85
85
85
84
87
87
86
89
89
88
89
89
88
87
84
86
82
83
81
78
80
78
78
78
79
77
79
79
80
80
80
82
80
81
79
80
81
81
81
81
81
81
80
77
80
79
78
76
76
73
73
72
74
72
73
74
73
74
50
95
73
74
72
72
71
72
63
80
72
72
73
73
75
75
76
77
79
78
80
81
80
81
81
80
82
80
81
81
80
75
76
73
76
75
53
100
77
75
76
77
75
77
76
76
77
78
78
78
80
81
81
58
107
80
82
81
81
80
82
80
81
81
80
80
80
79
78
77
78
77
76
77
79
78
81
80
79
80
79
79
78
76
77
76
78
78
81
83
85
87
87
87
88
88
88
88
86
87
86
85
87
86
84
85
84
85
83
84
84
83
86
84
83
85
86
84
85
85
84
85
85
83
85
86
85
85
86
87
89
89
88
89
89
88
89
89
89
91
90
90
90
89
88
89
85
87
86
85
86
86
85
86
85
85
86
84
84
84
83
83
83
83
83
84
84
83
85
85
84
86
86
85
87
87
85
86
87
84
87
88
86
87
87
86
88
87
86
89
88
87
88
89
88
59
123
87
88
57
120
87
87
87
88
88
89
88
57
123
86
90
58
121
88
90
87
89
86
86
87
86
89
89
89
92
92
90
89
93
97
97
94
97
97
96
94
96
95
92
94
94
93
94
93
92
93
93
93
94
95
93
95
95
95
96
95
96
97
94
95
97
94
95
96
96
94
96
95
93
95
95
92
95
96
95
97
98
95
96
95
94
94
95
96
94
97
96
96
97
94
96
96
96
95
98
95
97
95
94
95
93
92
91
93
95
95
94
97
98
95
97
97
95
95
96
94
95
95
96
93
95
57
131
91
92
90
89
91
90
90
91
90
90
90
90
89
86
88
87
87
88
86
85
84
85
84
82
83
80
81
82
82
82
81
79
83
80
82
82
82
84
85
83
87
87
87
90
90
88
90
90
89
89
89
90
88
89
89
88
88
87
86
88
88
88
89
90
92
91
94
94
94
96
95
95
93
96
95
92
95
95
94
94
95
95
93
95
95
94
94
95
94
92
93
93
93
91
90
90
89
92
91
76
104
93
93
92
95
94
95
93
98
97
97
99
99
97
98
97
96
95
95
77
110
95
94
93
95
95
94
92
89
89
91
89
90
90
89
87
89
87
87
85
85
85
86
86
87
85
88
86
86
85
87
87
86
89
89
87
90
89
87
90
90
88
90
89
89
89
90
89
88
90
90
88
91
91
89
93
93
90
88
88
88
88
90
90
90
89
90
89
87
90
89
90
91
87
89
90
90
89
89
89
88
88
60
119
87
88
89
88
88
89
88
88
88
90
88
91
92
90
92
91
90
89
91
91
89
92
90
89
90
91
89
89
91
91
91
91
92
91
92
92
92
91
93
90
89
88
88
89
87
89
89
88
89
89
89
90
90
89
91
90
90
90
92
93
90
93
93
92
91
91
89
90
90
90
87
88
87
88
88
90
90
90
91
91
89
91
90
91
91
91
91
91
91
90
89
86
88
89
85
87
87
88
89
89
69
109
86
87
88
90
83
82
82
83
83
82
84
85
86
86
83
84
85
84
85
85
84
85
86
83
85
84
82
81
82
80
81
81
81
81
81
81
82
81
82
81
82
80
81
82
80
80
81
79
82
80
81
81
82
79
84
81
80
81
81
82
82
81
83
82
82
83
81
80
82
81
82
82
84
83
83
84
84
82
84
84
83
83
84
83
84
84
82
84
83
84
81
84
82
82
82
81
83
82
81
80
82
81
82
81
84
81
84
83
82
83
82
83
83
82
79
79
80
80
79
79
80
81
79
80
78
78
79
77
78
81
79
80
80
80
78
81
80
79
80
81
79
81
81
80
80
81
79
79
81
81
82
82
83
85
85
87
57
117
84
85
84
85
85
86
87
61
115
85
88
86
87
86
89
89
89
90
57
127
89
89
90
89
89
58
123
85
84
84
85
83
83
82
83
83
83
84
86
85
85
87
87
86
89
89
88
92
92
89
93
92
90
92
91
89
92
90
89
91
90
88
91
90
90
91
88
88
89
87
88
88
86
88
88
88
88
88
86
88
86
86
86
87
86
88
88
87
90
90
90
91
91
90
92
90
89
87
88
86
87
86
86
86
86
88
86
84
86
87
57
118
85
86
85
86
87
85
88
89
87
90
88
78
100
86
88
88
86
88
87
86
85
85
85
83
84
80
83
82
82
84
86
86
87
88
89
88
90
90
90
90
90
91
92
90
91
91
91
91
91
89
91
92
89
92
92
90
92
92
90
92
92
90
93
92
90
93
91
91
92
93
90
90
89
86
85
83
83
85
85
84
85
85
87
87
86
86
86
86
86
86
85
85
84
83
82
85
85
85
88
88
89
91
89
91
89
89
89
87
85
87
85
86
86
87
88
86
86
84
86
85
86
86
85
85
87
86
86
86
86
84
81
83
83
58
109
82
81
83
80
81
83
81
82
82
81
83
83
83
59
109
82
82
82
82
80
81
81
80
83
82
82
83
82
81
83
83
81
83
84
84
83
82
82
80
79
79
78
78
79
78
80
80
79
80
80
80
80
81
81
79
81
81
80
82
81
80
79
78
80
80
79
80
80
81
81
82
81
82
82
81
82
82
81
84
84
83
86
85
84
86
86
85
84
84
85
84
84
86
86
87
85
87
88
85
88
88
88
87
91
90
90
93
93
90
92
92
90
90
60
70
55
55
54
59
56
63
54
64
66
58
118
99
93
89
77
102
85
52
115
85
87
85
85
86
86
86
86
87
87
55
122
87
85
87
86
86
86
87
85
88
86
87
87
86
84
85
85
86
85
86
86
86
87
86
85
86
85
52
112
84
83
80
81
69
94
81
83
85
83
87
87
87
85
86
86
84
85
85
84
84
85
83
87
86
85
87
88
86
87
86
87
84
86
85
85
85
86
70
102
85
86
85
86
86
85
87
86
86
87
87
56
120
87
86
86
86
88
86
59
120
87
84
58
115
85
84
84
84
84
82
84
83
83
82
84
82
83
83
81
83
81
81
82
83
82
85
85
85
86
87
88
87
88
89
87
88
88
86
87
85
85
86
85
84
85
85
84
85
84
84
83
84
83
84
84
84
85
84
86
86
85
87
86
86
87
87
87
87
88
88
88
89
88
89
89
88
89
89
86
88
87
87
57
118
86
86
84
85
84
83
85
84
85
84
84
84
85
85
85
87
84
87
87
86
88
88
86
87
87
84
86
85
83
82
83
82
84
82
83
84
84
84
85
85
84
87
87
86
88
87
87
88
90
88
91
89
92
91
90
93
93
94
92
93
94
92
94
94
92
94
93
92
93
93
90
91
89
89
90
89
89
90
89
89
89
89
89
86
86
84
84
84
84
82
84
83
84
83
84
84
84
84
85
83
86
87
58
117
84
84
82
82
81
82
82
84
84
83
86
85
84
88
87
87
87
86
88
88
89
89
88
89
89
88
89
89
86
87
84
85
84
85
87
86
85
86
86
86
87
87
86
88
87
88
89
89
89
87
88
89
70
107
87
87
87
86
60
115
84
85
83
85
84
86
86
86
86
86
86
87
87
85
87
60
114
87
86
85
85
84
82
84
82
81
84
80
82
82
81
81
83
82
82
83
81
83
81
83
83
83
83
85
85
84
84
83
84
84
85
82
81
80
83
84
83
84
87
90
91
91
92
92
92
93
91
93
92
93
93
92
92
95
93
93
95
96
94
96
98
95
96
97
99
97
95
98
98
99
99
101
100
101
102
99
101
99
100
99
97
98
97
97
96
94
97
94
95
96
96
97
98
95
98
96
94
95
91
91
89
92
92
91
95
94
94
95
94
96
90
91
91
90
89
86
88
89
90
89
92
91
91
94
96
93
94
92
92
93
92
95
92
95
94
93
95
95
93
95
95
96
95
94
97
99
99
96
98
98
95
96
95
94
94
97
97
97
96
97
95
96
98
97
96
94
96
96
98
99
100
97
98
100
99
100
95
93
95
94
96
98
99
100
98
98
98
96
100
98
99
99
99
98
96
97
69
129
103
98
60
128
100
98
99
105
99
101
103
103
100
103
104
101
103
104
101
101
103
103
99
102
102
98
101
100
98
100
101
98
99
97
94
94
93
94
97
98
97
100
100
97
98
96
95
95
94
93
94
93
93
91
92
92
91
93
95
94
96
96
97
98
99
96
98
98
98
98
99
101
96
102
99
98
100
100
96
100
99
97
99
100
97
99
99
97
99
99
98
98
98
98
96
99
97
97
97
99
95
99
98
95
99
97
94
97
97
94
98
96
96
98
98
96
99
99
97
98
100
96
99
97
97
97
97
95
97
96
94
96
96
94
96
97
94
96
95
92
93
92
93
93
93
95
97
95
96
96
95
96
96
98
96
98
97
95
97
98
96
97
98
99
96
75
118
101
102
100
99
100
99
100
99
96
98
99
98
95
101
99
96
94
96
96
96
98
98
99
98
98
97
98
98
96
95
101
100
99
97
98
100
98
96
94
93
93
93
92
94
94
94
93
96
98
100
96
98
95
93
93
93
92
91
91
93
93
95
102
104
104
101
101
96
98
99
96
97
98
99
98
101
102
100
99
99
98
96
95
95
95
95
93
91
87
88
87
87
89
86
86
85
84
84
82
82
80
80
80
80
80
80
82
79
86
85
84
86
85
84
88
88
88
89
92
93
92
92
95
93
92
93
92
91
88
91
91
91
93
93
94
93
59
136
92
95
94
93
96
94
94
96
95
92
94
95
93
59
131
93
90
93
91
91
94
94
93
96
96
94
98
97
95
97
97
95
97
97
94
96
96
95
96
97
97
97
98
96
99
99
98
98
98
97
99
99
97
99
99
97
96
99
96
96
95
94
93
92
93
93
96
95
97
98
96
97
97
96
96
98
95
97
98
96
98
98
97
97
99
96
98
98
95
98
97
96
99
98
96
99
99
96
97
99
97
96
97
97
95
99
97
96
98
98
96
98
97
95
93
93
93
93
96
96
95
97
96
95
94
97
95
93
92
92
91
91
92
91
94
93
91
94
95
92
96
95
93
96
95
94
93
95
92
92
92
92
90
91
93
92
94
96
98
96
99
101
99
98
104
100
98
100
101
100
98
100
101
98
98
99
100
99
98
100
101
102
100
98
101
100
99
98
96
95
96
96
98
100
97
99
100
99
100
99
99
100
100
97
101
101
99
99
102
102
99
102
103
101
102
104
105
101
105
106
102
103
105
104
101
103
105
101
102
106
101
103
102
99
101
103
100
99
102
102
100
100
103
102
101
104
103
102
105
104
102
105
105
102
101
103
102
100
102
103
100
101
102
100
99
101
101
98
99
97
95
93
93
93
95
92
95
97
95
96
98
97
95
97
98
97
98
101
100
97
100
100
100
99
101
98
99
100
100
99
99
101
98
99
99
94
97
94
92
92
92
95
97
96
100
102
99
104
103
101
104
105
101
105
104
101
98
105
103
104
102
104
104
102
103
104
102
103
104
101
104
103
101
103
103
101
104
103
101
103
103
101
101
104
100
102
103
103
100
104
102
99
102
100
100
101
98
100
99
97
99
99
96
97
99
96
99
98
98
99
100
99
100
99
97
97
96
96
97
97
97
98
99
99
97
99
97
100
99
98
100
101
98
100
102
98
100
100
99
100
100
99
102
101
98
94
95
94
93
97
99
98
97
101
99
100
102
100
100
102
100
102
103
99
102
101
99
103
104
103
103
105
101
103
104
102
103
103
102
103
104
102
101
103
105
103
105
106
103
105
106
102
105
106
102
105
105
103
103
105
103
101
105
103
101
106
105
101
104
104
102
101
105
103
101
104
104
100
103
103
101
101
98
96
96
98
100
99
102
104
103
102
104
89
55
43
39
42
51
47
48
47
45
42
42
46
54
56
60
63
64
63
71
59
132
99
112
110
107
108
107
104
105
101
98
101
100
98
98
97
97
97
97
61
138
101
98
98
102
103
100
105
104
105
108
106
107
60
101
105
103
103
106
104
104
108
104
102
102
102
101
103
102
100
103
102
100
102
69
140
100
102
97
100
101
100
101
102
102
102
105
100
104
103
101
100
97
99
97
97
97
97
96
95
93
96
93
96
94
93
92
95
95
97
98
100
100
100
102
101
100
103
103
100
104
104
100
100
101
99
104
101
102
105
103
102
104
102
100
102
102
100
102
103
99
102
102
102
100
102
103
99
101
102
99
99
99
97
93
99
101
104
104
106
106
103
105
105
103
103
104
101
103
103
100
102
102
99
101
100
98
101
101
100
100
100
101
99
97
97
97
97
99
100
97
101
101
99
101
101
97
100
102
99
99
103
103
100
102
103
99
101
103
100
101
102
100
100
103
101
100
101
101
99
101
99
97
99
97
97
97
98
96
100
98
97
100
100
97
101
101
98
102
101
99
102
100
100
101
103
101
99
102
100
99
102
98
98
98
98
96
96
96
97
94
96
96
94
95
96
93
96
92
92
92
92
93
97
99
98
102
105
101
106
107
104
104
104
103
102
104
103
100
103
104
101
102
104
100
101
103
98
101
98
97
98
99
95
96
96
94
96
97
95
97
99
98
98
99
98
96
99
98
98
97
97
98
97
98
100
101
100
102
101
99
98
95
95
95
96
98
100
99
99
104
105
102
103
106
106
103
107
107
103
106
106
104
101
106
105
104
105
105
103
103
105
104
103
104
105
101
104
104
101
103
105
102
105
103
103
101
103
103
101
103
103
100
103
103
99
102
102
101
100
102
100
98
100
100
97
100
98
95
95
95
98
99
99
99
102
102
102
100
104
101
99
102
103
101
100
104
104
103
102
104
103
100
103
103
101
101
104
99
102
102
99
103
104
102
102
104
101
102
104
100
102
102
102
101
102
101
101
103
102
101
102
102
100
102
101
100
101
103
99
102
100
99
99
95
95
94
95
96
96
96
99
101
99
101
103
105
101
106
107
103
107
106
104
104
106
104
102
106
103
102
105
104
102
105
106
101
102
104
102
101
103
105
103
103
105
105
103
104
106
101
105
103
102
103
103
103
103
104
102
102
103
99
101
101
99
102
103
106
105
101
98
104
104
103
103
104
102
102
103
100
102
102
101
102
103
100
103
101
103
102
102
101
100
97
97
99
98
101
103
103
105
103
103
105
104
104
105
104
102
103
106
101
103
102
101
101
106
101
103
104
101
104
105
101
104
105
103
103
106
103
105
105
103
104
107
103
104
104
102
104
104
102
104
105
103
105
106
103
105
107
104
103
104
106
104
103
107
106
104
105
107
106
103
106
106
102
105
104
101
101
104
100
103
102
99
101
103
102
101
103
104
102
103
105
104
102
104
100
96
97
97
96
97
96
98
100
100
101
101
101
102
103
102
100
98
95
93
93
91
92
92
90
91
91
90
92
92
92
92
93
94
92
96
96
95
98
98
98
95
94
91
91
91
90
93
92
95
95
95
96
96
95
95
97
98
96
97
98
98
96
97
97
98
95
97
96
95
97
96
96
98
99
96
95
95
96
98
97
96
98
99
98
100
99
99
101
102
101
102
100
102
62
146
102
101
99
99
99
100
98
98
99
100
101
101
99
98
98
97
96
93
95
95
95
98
100
103
102
96
98
98
99
98
98
99
98
99
98
98
96
95
96
97
97
97
97
97
96
95
94
95
96
93
96
95
96
95
96
94
96
95
93
92
93
95
94
96
95
97
97
98
100
96
101
100
97
100
101
98
102
103
98
101
103
103
101
101
102
99
99
99
96
95
97
98
96
99
98
98
100
99
101
100
97
99
87
85
101
111
126
103
97
99
97
94
97
96
98
100
100
99
100
101
98
99
96
99
97
98
98
98
97
98
99
98
100
100
101
100
101
104
100
103
102
101
102
105
104
102
100
96
95
99
99
101
100
99
98
98
99
102
103
100
104
101
100
102
101
101
94
96
97
98
96
97
99
98
97
99
102
102
102
103
105
103
102
104
103
100
102
107
104
105
107
107
107
108
107
104
106
105
103
106
106
103
105
103
100
99
101
101
103
104
105
101
104
105
105
102
106
102
103
102
105
102
100
102
102
104
104
106
107
106
105
107
107
106
104
106
107
104
106
106
106
103
107
106
106
105
107
107
105
104
106
106
105
104
105
105
103
105
103
101
101
100
100
98
99
99
96
98
96
97
98
95
97
98
96
98
93
93
94
94
95
97
98
98
100
99
102
101
98
99
97
100
100
99
101
99
98
100
101
100
101
101
101
102
103
105
47
55
102
104
101
105
105
104
106
106
104
106
105
105
103
106
105
105
104
104
103
98
99
100
99
101
101
101
100
99
102
101
103
101
100
100
98
100
97
98
98
97
96
96
95
95
97
96
95
96
96
94
95
96
95
96
97
99
100
100
101
102
100
100
102
102
101
102
101
101
99
99
98
98
96
96
96
95
93
95
97
98
101
102
102
104
104
103
107
104
103
106
104
103
105
105
103
105
107
104
107
106
104
104
105
102
105
105
102
105
104
102
103
105
102
105
104
102
104
105
102
105
105
103
104
104
103
102
104
106
102
104
104
102
101
103
100
101
101
99
100
102
100
100
100
101
100
101
101
100
102
100
101
101
101
99
101
102
99
102
103
100
102
103
102
102
101
100
100
101
102
100
101
102
99
101
104
100
100
96
98
98
101
103
101
103
104
101
103
105
101
104
104
101
103
104
101
103
105
101
104
105
102
105
105
105
103
105
104
103
106
104
104
105
100
103
100
99
101
99
100
103
104
104
103
105
106
106
102
106
105
102
104
106
104
103
106
106
104
105
108
105
104
107
106
104
104
105
106
103
105
107
104
106
106
106
104
105
105
102
104
104
103
102
104
104
101
71
140
100
102
102
101
101
102
103
101
100
103
104
102
102
104
104
101
101
104
104
103
101
103
103
104
102
104
105
101
104
104
102
102
105
103
102
102
104
104
102
103
103
99
98
98
97
97
100
102
104
103
102
105
102
103
103
100
104
100
102
101
99
98
97
95
95
94
94
92
93
91
92
92
92
90
92
90
88
90
91
90
90
91
90
90
92
93
92
93
94
94
93
95
94
95
94
95
96
95
92
94
93
89
89
89
89
89
90
90
90
91
95
95
95
99
98
99
100
99
100
99
101
102
104
102
106
105
107
104
106
103
102
108
104
102
98
102
99
98
96
97
96
97
99
99
99
100
101
98
101
99
99
69
134
98
95
96
97
94
98
99
99
99
102
101
100
104
103
100
102
103
100
101
102
99
100
101
101
99
102
102
100
101
100
99
100
101
100
100
98
100
98
94
97
97
92
95
95
92
91
89
90
90
91
89
93
93
93
95
97
96
98
97
98
101
99
100
101
100
99
100
101
98
98
104
104
106
102
105
102
101
100
98
99
99
99
99
99
101
104
104
104
102
103
104
101
100
99
100
97
100
99
100
102
104
102
104
103
100
102
101
102
103
96
101
96
94
90
91
90
87
87
84
81
80
79
81
80
80
80
79
81
79
80
76
77
77
79
80
79
81
82
84
84
83
85
85
85
86
83
86
86
85
84
84
86
84
85
86
87
87
85
88
86
88
87
86
87
86
87
86
86
86
83
84
84
84
84
84
87
87
87
90
89
88
86
88
88
87
86
88
89
88
88
88
87
85
86
85
85
87
88
86
89
90
92
91
91
91
92
91
92
93
91
92
92
94
94
95
94
96
93
94
94
94
92
90
88
86
88
88
89
89
90
92
91
92
89
91
90
89
90
91
92
94
95
95
97
96
96
96
99
99
98
95
95
94
94
96
95
96
95
98
99
97
100
99
99
98
99
97
99
99
99
97
98
97
97
95
94
96
94
93
95
94
92
93
94
60
130
90
90
89
88
89
89
89
89
90
89
89
89
86
87
85
84
84
86
88
58
125
90
87
88
86
54
116
90
87
86
87
85
86
89
87
89
92
92
92
92
95
96
96
97
98
98
95
97
97
96
97
98
97
96
96
96
95
93
95
94
93
94
92
94
93
93
92
95
95
94
95
95
97
96
95
96
92
92
91
94
91
90
90
89
91
91
92
92
90
90
90
90
90
89
91
59
51
150
88
86
84
83
82
81
82
81
81
80
81
83
82
82
85
86
85
85
86
87
85
87
86
87
86
85
86
84
85
84
84
82
84
85
82
84
84
81
81
81
80
79
80
78
79
79
78
79
78
78
77
77
78
79
78
82
81
82
81
82
81
81
78
78
80
50
105
84
83
83
84
85
83
85
86
84
84
82
85
84
82
85
85
86
85
57
118
84
84
84
82
82
80
81
81
81
82
83
83
82
85
84
85
84
87
84
87
85
85
61
105
82
81
57
107
81
80
82
56
114
83
82
84
84
57
115
85
88
86
87
88
87
89
89
89
89
89
88
88
89
90
87
90
88
88
86
85
84
83
84
84
80
81
81
82
82
81
82
82
83
84
84
84
85
86
85
86
87
86
85
86
89
88
89
88
88
87
88
85
85
86
85
84
83
84
82
83
83
83
82
65
85
97
83
82
83
81
81
80
80
80
80
80
81
80
81
81
81
81
82
83
82
84
82
85
84
83
84
83
84
86
84
86
83
84
75
72
80
62
88
74
75
75
76
64
89
78
78
76
79
78
80
78
80
79
79
79
79
79
79
79
78
78
77
78
77
78
77
77
77
78
77
56
101
76
75
75
75
75
73
74
75
75
74
76
76
77
78
78
78
78
79
79
79
80
79
79
81
81
82
82
84
84
84
87
60
115
85
82
55
110
80
80
79
60
96
80
82
81
83
85
85
86
56
119
86
84
85
85
54
118
83
82
84
83
83
83
84
83
81
84
84
85
85
86
85
84
84
83
84
80
85
81
82
82
82
82
82
84
83
83
84
83
84
83
83
83
81
82
81
81
81
82
81
81
81
81
80
82
80
82
81
80
80
80
80
80
80
80
81
81
81
81
81
80
81
81
79
81
81
80
81
82
81
83
83
83
84
83
83
84
84
55
116
84
82
82
82
58
111
82
82
80
81
80
81
57
82
84
81
82
82
81
80
82
82
82
82
83
80
81
79
56
102
76
78
76
79
76
79
79
80
81
79
79
80
79
80
80
79
81
80
81
79
82
83
81
80
81
80
80
81
80
79
81
80
80
79
78
77
77
76
75
76
76
78
77
78
80
79
80
60
97
76
78
55
102
79
76
76
79
78
80
79
79
81
79
79
78
81
78
80
78
77
81
77
79
77
78
79
57
103
78
78
79
75
77
78
56
100
78
77
77
77
77
76
78
79
80
80
80
81
82
82
81
82
81
81
81
55
70
106
82
81
56
106
79
80
79
78
78
78
79
79
79
80
80
81
81
81
81
83
81
81
80
58
107
68
96
81
83
54
115
81
82
80
81
80
80
80
80
54
110
80
80
54
108
80
80
79
80
55
108
79
79
77
77
78
78
79
78
76
78
78
77
77
77
79
77
77
79
78
78
79
79
80
79
80
79
78
78
76
76
49
95
66
83
74
74
74
73
75
73
74
74
75
75
75
77
76
75
76
75
74
75
74
75
75
76
74
76
74
74
75
77
75
75
75
76
76
77
77
77
78
79
77
77
76
78
76
77
79
78
78
79
79
81
81
80
79
79
80
78
78
78
78
78
77
81
79
80
79
81
80
82
81
82
80
82
80
82
82
52
79
78
77
77
76
76
77
75
76
77
56
101
77
77
78
79
53
107
79
78
78
79
78
79
78
79
79
79
80
55
106
79
78
53
105
68
84
74
74
74
73
73
73
57
76
75
76
75
76
76
76
80
81
81
84
83
83
84
83
85
86
85
88
88
86
89
86
87
87
84
82
81
82
81
82
79
80
79
77
77
77
76
76
76
76
76
75
76
76
77
77
78
78
78
79
79
80
80
77
78
79
78
78
79
77
79
78
78
78
79
65
96
64
97
80
81
82
81
62
105
65
98
81
84
84
86
85
88
88
88
88
90
90
90
90
90
91
90
55
128
66
119
89
90
88
88
88
88
90
90
54
130
67
116
88
90
86
84
84
87
87
89
88
89
89
90
90
88
90
89
89
89
89
89
90
90
89
89
89
90
88
90
90
89
89
90
89
88
89
90
90
90
90
89
88
90
90
88
90
92
91
91
92
92
91
91
92
92
90
92
92
90
90
88
85
86
72
101
68
114
89
83
69
120
68
124
94
92
73
110
90
78
101
91
77
106
93
93
90
91
91
92
90
91
92
57
129
93
94
89
92
92
93
93
94
85
104
93
94
93
93
92
87
97
93
93
91
92
91
93
93
95
95
92
92
89
88
91
89
86
87
85
86
85
86
90
90
91
92
90
92
91
91
90
90
89
87
86
85
86
87
88
88
88
88
88
88
88
87
86
87
86
85
84
84
85
85
86
84
86
86
86
86
86
85
86
84
84
85
85
84
84
84
84
83
84
83
82
82
81
81
81
81
81
81
84
83
82
82
83
60
112
86
87
88
88
89
91
90
60
125
70
116
90
91
89
90
90
89
57
129
93
94
59
130
89
92
90
89
90
91
91
92
92
93
95
95
56
138
94
96
95
93
93
92
92
92
93
95
95
96
94
95
93
94
92
96
99
97
99
99
100
96
97
95
93
90
91
92
93
94
96
82
114
103
84
117
99
99
100
99
99
98
99
101
101
101
101
97
57
124
96
97
94
93
93
92
90
93
94
93
93
91
91
89
89
87
88
92
91
91
92
91
91
91
91
92
92
94
93
95
96
96
95
96
94
93
97
98
98
96
96
97
97
96
93
95
97
100
98
99
97
96
95
94
93
93
93
93
92
55
125
94
93
93
91
93
91
93
92
93
92
93
95
95
94
94
92
96
96
99
95
97
95
95
96
95
94
94
94
93
93
95
95
96
93
93
92
92
92
91
93
95
94
94
94
95
95
94
95
94
92
91
90
91
93
93
96
98
100
101
101
99
99
96
94
93
93
92
95
94
93
96
99
95
97
96
96
95
97
97
94
96
96
95
94
94
94
94
95
93
94
94
93
94
90
90
91
89
89
90
92
91
93
93
92
92
91
92
91
90
93
93
95
95
94
93
92
90
91
91
87
85
86
86
87
87
90
89
91
93
94
93
90
89
88
90
89
89
90
91
91
93
92
95
96
95
95
96
96
95
95
96
96
96
97
97
95
95
94
94
94
94
93
93
93
90
92
91
92
90
91
91
92
93
92
91
92
91
91
90
92
90
89
91
88
89
90
89
88
90
88
90
89
89
88
87
86
85
86
83
84
86
86
87
89
91
89
93
90
90
90
89
90
91
90
91
90
91
89
89
90
88
87
88
87
61
118
90
91
90
90
92
93
91
60
130
92
94
94
93
92
95
95
94
94
95
94
95
93
96
94
96
94
96
95
96
96
94
96
96
94
95
97
96
95
97
97
95
97
98
97
97
97
96
96
97
98
96
97
98
95
96
95
95
95
96
94
96
95
97
95
96
98
95
96
97
97
96
96
98
95
96
96
96
95
96
96
95
95
96
97
95
97
97
96
95
95
95
94
95
96
95
95
96
94
95
94
95
94
94
95
94
95
95
93
95
94
93
96
94
95
95
95
95
95
96
97
95
97
96
96
94
96
97
95
96
95
95
95
96
94
94
94
95
93
95
95
94
94
95
95
95
96
96
97
94
96
97
97
96
96
98
96
97
96
97
96
97
95
96
96
95
95
95
95
95
95
97
96
96
95
96
95
95
95
95
96
95
96
94
95
94
93
92
92
91
91
90
88
90
88
88
87
85
86
87
88
88
90
91
92
91
93
95
93
95
94
94
93
95
94
96
94
96
95
94
96
87
109
96
98
98
97
98
97
97
96
96
96
97
96
97
97
96
98
98
97
97
97
97
95
97
98
98
97
98
98
98
98
101
99
99
99
98
99
98
100
98
98
98
98
98
98
100
99
98
100
101
98
99
100
99
97
99
101
97
98
99
100
98
98
98
97
97
98
98
96
98
99
100
99
100
102
99
101
100
101
99
100
103
100
100
101
102
100
99
99
101
101
99
99
102
99
99
100
100
97
98
98
98
98
98
100
99
98
101
102
99
99
100
100
99
99
99
97
96
96
97
95
97
97
97
96
98
98
96
96
96
96
96
97
96
96
97
86
109
96
99
94
95
93
91
88
90
90
92
94
97
96
98
102
101
100
101
101
101
101
102
100
100
100
102
103
99
102
101
101
100
100
102
100
100
100
100
100
99
101
100
98
99
98
99
99
98
97
98
99
99
97
100
99
98
99
99
101
99
100
98
98
100
101
100
97
99
99
100
100
99
97
98
101
101
100
100
101
101
99
101
102
100
100
100
102
99
100
102
100
100
101
100
100
101
103
101
100
102
102
101
99
100
101
100
100
102
100
97
99
99
98
99
99
98
98
99
98
98
99
99
98
99
100
99
99
101
98
100
98
99
98
98
98
99
98
100
99
100
95
103
99
98
98
99
97
99
99
99
97
98
96
94
92
92
93
94
96
96
95
99
99
98
98
99
98
98
98
98
98
97
99
97
98
98
98
98
99
98
99
99
99
98
101
100
99
101
101
99
100
101
101
98
101
100
100
101
101
101
100
101
102
100
101
102
101
100
102
102
100
102
103
103
100
103
103
101
101
103
100
102
102
101
100
101
101
99
101
100
100
101
100
97
100
100
98
100
100
99
99
100
98
98
98
97
98
98
99
98
98
100
97
98
98
97
97
99
100
98
100
100
101
98
100
100
99
99
99
99
98
98
99
96
98
96
96
94
95
97
97
95
98
99
97
98
99
99
97
98
98
97
100
98
98
99
98
99
98
96
97
98
95
93
94
84
86
86
86
86
89
87
88
85
86
88
90
93
89
90
91
87
88
87
84
87
84
84
83
84
84
84
84
84
84
85
84
84
84
84
84
84
85
85
86
86
86
85
85
86
86
84
86
86
86
84
85
85
84
84
85
83
85
84
85
85
83
86
84
85
85
84
83
84
84
85
83
83
83
83
83
82
84
83
82
82
83
81
82
81
82
81
82
80
83
80
80
80
78
80
79
80
79
81
79
82
80
79
80
81
79
80
80
80
80
81
80
74
72
73
73
73
73
74
74
74
76
76
77
76
77
78
77
79
78
79
78
79
78
77
77
77
76
78
76
76
76
77
77
79
78
79
79
80
81
82
83
82
58
111
66
99
81
81
79
81
79
79
79
80
81
81
79
80
79
79
80
79
77
79
76
77
76
76
75
73
73
72
73
74
72
73
74
48
63
92
74
75
76
75
75
76
49
102
75
76
75
75
75
74
75
75
51
96
74
72
73
73
64
79
73
73
73
72
73
73
71
56
89
73
72
71
73
72
70
71
70
70
71
71
70
71
71
46
93
72
71
71
72
71
71
72
71
71
72
72
71
71
73
54
93
74
75
75
75
76
75
76
77
76
76
77
75
77
76
76
76
76
77
74
78
63
89
65
89
78
78
67
90
68
93
80
81
81
79
80
82
83
80
80
54
109
65
97
79
80
78
79
54
107
81
79
53
108
69
92
80
84
82
83
85
85
53
116
68
103
83
82
79
83
81
81
80
82
81
81
81
79
80
80
81
81
80
81
80
80
80
81
80
79
78
80
81
81
81
82
82
82
82
82
83
82
85
84
85
86
86
85
84
84
84
83
83
61
98
82
82
80
80
58
81
77
77
79
79
76
77
78
78
79
78
80
78
79
80
79
81
82
82
83
82
83
82
82
82
83
83
83
82
81
85
82
83
84
84
84
86
87
54
123
89
86
84
85
86
85
84
81
83
81
82
59
103
80
80
54
104
77
77
76
77
56
98
76
76
77
77
55
103
78
79
77
78
74
76
74
74
75
74
73
74
75
76
76
76
77
77
77
77
78
77
80
79
79
81
81
82
82
81
83
83
81
82
82
72
71
72
72
71
72
73
72
74
72
73
74
74
72
73
73
73
73
74
74
73
74
67
82
65
84
74
75
74
75
75
74
77
75
77
76
77
78
77
78
80
78
80
80
81
81
80
57
107
65
97
79
79
80
80
79
81
80
54
108
63
96
77
78
75
76
58
95
76
76
75
76
77
77
79
78
80
81
54
111
82
82
81
81
81
80
80
80
81
80
81
80
81
80
82
82
80
82
84
82
85
83
83
82
82
80
82
80
81
79
80
78
79
79
78
78
76
78
78
79
80
81
81
82
83
82
80
83
82
83
84
84
84
84
85
86
86
84
84
84
83
82
84
85
83
84
85
84
84
85
83
83
82
83
53
112
83
81
79
81
53
117
65
103
81
57
107
67
94
80
78
76
76
77
77
56
100
76
79
77
78
78
77
77
79
77
78
78
78
79
78
79
80
77
76
76
75
77
76
74
76
76
77
76
75
77
76
75
76
75
76
75
75
75
75
73
74
73
73
73
73
73
74
72
75
73
73
73
73
71
72
71
71
71
70
69
69
70
68
69
68
68
68
70
67
68
68
68
67
68
67
68
68
68
67
68
68
67
67
68
66
67
68
67
67
67
68
67
68
68
67
67
68
70
51
86
68
68
69
67
67
68
68
69
48
88
69
70
69
71
69
70
70
72
74
72
72
71
55
87
56
88
54
90
73
72
71
71
71
71
58
85
70
70
69
70
46
92
61
80
70
72
51
91
62
80
70
71
46
94
62
81
72
70
71
71
70
71
72
71
72
56
86
71
71
70
71
71
71
71
57
87
63
82
73
73
72
74
73
76
74
76
77
76
78
78
78
79
79
78
78
77
75
77
76
78
77
79
78
67
87
77
76
77
81
71
73
76
74
75
75
75
75
77
76
51
104
76
76
76
77
75
77
76
75
79
78
79
79
77
75
75
75
69
76
75
76
77
77
77
59
93
75
74
74
75
74
74
74
75
73
73
74
72
73
73
73
72
72
73
74
72
74
72
72
73
72
72
72
73
72
72
57
88
72
73
56
90
63
82
72
72
61
85
74
73
74
73
74
87
125
85
74
72
72
72
73
73
73
74
58
88
73
79
53
99
63
86
74
75
74
74
74
53
64
73
75
72
73
65
82
65
83
74
74
55
95
65
86
74
77
57
98
71
65
89
76
77
52
103
80
79
80
79
80
80
80
80
79
80
79
79
56
102
66
92
78
79
77
77
53
67
88
78
77
77
78
78
78
78
79
52
107
77
78
77
77
77
76
76
77
75
76
75
76
75
74
76
75
75
76
76
76
75
76
75
75
73
74
75
75
75
75
75
53
98
64
86
74
73
48
67
79
57
89
73
72
72
73
73
74
72
75
74
75
74
75
48
101
76
76
75
72
75
74
74
75
75
74
75
75
74
76
76
76
75
76
74
75
55
94
75
74
48
100
76
74
58
92
66
83
75
73
56
92
74
73
54
94
75
75
75
76
63
89
68
86
78
79
56
104
81
80
77
81
78
79
78
81
79
80
78
51
108
78
78
52
105
76
75
77
74
75
76
54
97
75
76
75
76
75
74
76
75
74
75
76
75
76
77
77
77
77
78
77
78
79
78
77
76
77
77
77
77
77
78
80
80
80
81
80
80
79
77
78
77
77
78
78
80
80
81
81
80
77
77
54
100
64
86
75
73
74
74
73
74
74
73
75
74
75
75
75
75
53
99
60
87
74
73
72
74
74
73
74
75
74
75
75
74
74
73
74
75
73
74
76
76
74
78
77
77
80
77
79
78
79
79
79
80
81
80
80
80
79
80
80
80
82
81
80
81
80
81
82
82
83
86
86
85
83
82
83
82
83
83
81
83
83
84
84
83
83
83
82
80
80
49
104
81
79
54
104
79
79
77
80
78
52
122
130
81
79
54
106
78
79
56
104
60
94
78
77
76
76
78
77
78
53
103
79
77
56
101
78
79
77
78
60
97
80
77
78
78
58
99
79
78
77
79
55
103
79
78
77
79
54
105
79
80
80
79
79
80
54
108
80
81
80
80
80
80
81
81
79
82
81
81
81
82
82
82
84
82
82
83
81
84
81
81
82
82
82
82
81
83
83
84
82
83
83
82
83
83
82
81
82
83
83
83
84
84
83
85
83
84
84
84
84
85
84
85
85
85
85
86
86
84
85
83
82
83
83
81
109
84
83
83
83
82
83
83
83
83
83
82
83
63
103
80
86
51
100
78
77
77
63
90
77
78
77
78
77
77
78
79
78
79
79
80
60
100
80
80
79
79
79
79
79
79
78
79
77
79
57
103
80
80
79
61
99
80
79
80
81
81
82
80
81
81
81
83
83
85
84
84
86
86
87
86
87
87
87
86
88
88
88
88
87
89
88
88
89
89
91
