-1.749999999999999889e-01

-1.799999999999999933e-01

-1.799999999999999933e-01

-1.799999999999999933e-01

-1.799999999999999933e-01

-1.824999999999999956e-01

-1.824999999999999956e-01

-1.824999999999999956e-01

-1.799999999999999933e-01

-1.824999999999999956e-01

-1.799999999999999933e-01

-1.799999999999999933e-01

-1.799999999999999933e-01

-1.824999999999999956e-01

-1.875000000000000000e-01

-1.824999999999999956e-01

-1.749999999999999889e-01

-1.575000000000000011e-01

-1.300000000000000044e-01

-9.249999999999999889e-02

-5.999999999999999778e-02

-3.250000000000000111e-02

-2.500000000000000139e-02

-2.500000000000000139e-02

-2.500000000000000139e-02

-2.500000000000000139e-02

-1.750000000000000167e-02

0.000000000000000000e+00

7.499999999999999722e-03

1.250000000000000069e-02

1.250000000000000069e-02

7.499999999999999722e-03

5.000000000000000104e-03

5.000000000000000104e-03

1.750000000000000167e-02

3.250000000000000111e-02

5.249999999999999806e-02

6.500000000000000222e-02

7.749999999999999944e-02

7.000000000000000666e-02

5.999999999999999778e-02

5.750000000000000250e-02

7.749999999999999944e-02

7.000000000000000666e-02

-5.999999999999999778e-02

-2.849999999999999756e-01

-6.175000000000000488e-01

-9.150000000000000355e-01

-1.129999999999999893e+00

-1.300000000000000044e+00

-1.417499999999999982e+00

-1.512499999999999956e+00

-1.604999999999999982e+00

-1.697500000000000009e+00

-1.814999999999999947e+00

-1.955000000000000071e+00

-2.072499999999999787e+00

-2.129999999999999893e+00

-2.132499999999999840e+00

-2.084999999999999964e+00

-2.000000000000000000e+00

-1.857499999999999929e+00

-1.682500000000000107e+00

-1.495000000000000107e+00

-1.287500000000000089e+00

-1.122500000000000053e+00

-1.024999999999999911e+00

-9.475000000000000089e-01

-8.824999999999999512e-01

-8.074999999999999956e-01

-7.149999999999999689e-01

-6.125000000000000444e-01

-5.124999999999999556e-01

-3.900000000000000133e-01

-2.325000000000000122e-01

-3.749999999999999861e-02

2.025000000000000133e-01

3.775000000000000022e-01

5.324999999999999734e-01

6.350000000000000089e-01

6.949999999999999512e-01

7.199999999999999734e-01

7.399999999999999911e-01

7.475000000000000533e-01

7.550000000000000044e-01

7.650000000000000133e-01

7.800000000000000266e-01

7.874999999999999778e-01

8.050000000000000488e-01

8.125000000000000000e-01

8.299999999999999600e-01

8.399999999999999689e-01

8.575000000000000400e-01

8.774999999999999467e-01

9.024999999999999689e-01

9.274999999999999911e-01

9.599999999999999645e-01

9.875000000000000444e-01

1.020000000000000018e+00

1.052499999999999991e+00

1.092500000000000027e+00

1.132500000000000062e+00

1.175000000000000044e+00

1.215000000000000080e+00

1.254999999999999893e+00

1.292499999999999982e+00

1.324999999999999956e+00

1.357499999999999929e+00

1.382500000000000062e+00

1.402500000000000080e+00

1.409999999999999920e+00

1.417499999999999982e+00

1.409999999999999920e+00

1.397499999999999964e+00

1.370000000000000107e+00

1.340000000000000080e+00

1.294999999999999929e+00

1.247500000000000053e+00

1.182500000000000107e+00

1.122500000000000053e+00

1.047500000000000098e+00

9.749999999999999778e-01

8.974999999999999645e-01

8.175000000000000044e-01

7.399999999999999911e-01

6.574999999999999734e-01

5.725000000000000089e-01

4.874999999999999889e-01

4.149999999999999800e-01

3.449999999999999734e-01

2.725000000000000200e-01

2.074999999999999900e-01

1.549999999999999989e-01

9.750000000000000333e-02

5.000000000000000278e-02

5.000000000000000104e-03

-5.000000000000000278e-02

-8.500000000000000611e-02

-1.224999999999999978e-01

-1.549999999999999989e-01

-1.799999999999999933e-01

-2.000000000000000111e-01

-2.124999999999999944e-01

-2.275000000000000078e-01

-2.325000000000000122e-01

-2.399999999999999911e-01

-2.399999999999999911e-01

-2.449999999999999956e-01

-2.449999999999999956e-01

-2.449999999999999956e-01

-2.349999999999999867e-01

-2.325000000000000122e-01

-2.349999999999999867e-01

-2.349999999999999867e-01

-2.399999999999999911e-01

-2.349999999999999867e-01

-2.349999999999999867e-01

-2.275000000000000078e-01

-2.275000000000000078e-01

-2.200000000000000011e-01

-2.200000000000000011e-01

-2.149999999999999967e-01

-2.225000000000000033e-01

-2.275000000000000078e-01

-2.275000000000000078e-01

-2.275000000000000078e-01

-2.225000000000000033e-01

-2.200000000000000011e-01

-2.225000000000000033e-01

-2.225000000000000033e-01

-2.225000000000000033e-01

-2.275000000000000078e-01

-2.275000000000000078e-01

-2.325000000000000122e-01

-2.325000000000000122e-01

-2.275000000000000078e-01

-2.275000000000000078e-01

-2.325000000000000122e-01

-2.275000000000000078e-01

-2.225000000000000033e-01

-2.225000000000000033e-01

-2.225000000000000033e-01

-2.149999999999999967e-01

-2.025000000000000133e-01

-1.700000000000000122e-01

-1.375000000000000111e-01

-1.024999999999999939e-01

-7.749999999999999944e-02

-5.750000000000000250e-02

-5.750000000000000250e-02

-5.750000000000000250e-02

-5.249999999999999806e-02

-5.000000000000000278e-02

-4.499999999999999833e-02

-3.250000000000000111e-02

-2.000000000000000042e-02

7.499999999999999722e-03

2.750000000000000014e-02

4.499999999999999833e-02

6.500000000000000222e-02

8.250000000000000389e-02

8.999999999999999667e-02

8.999999999999999667e-02

1.100000000000000006e-01

9.750000000000000333e-02

-2.750000000000000014e-02

-2.550000000000000044e-01

-5.474999999999999867e-01

-8.625000000000000444e-01

-1.110000000000000098e+00

-1.287500000000000089e+00

-1.405000000000000027e+00

-1.502499999999999947e+00

-1.584999999999999964e+00

-1.682500000000000107e+00

-1.800000000000000044e+00

-1.929999999999999938e+00

-2.040000000000000036e+00

-2.092499999999999805e+00

-2.087499999999999911e+00

-2.042499999999999982e+00

-1.955000000000000071e+00

-1.820000000000000062e+00

-1.657499999999999973e+00

-1.475000000000000089e+00

-1.292499999999999982e+00

-1.132500000000000062e+00

-1.024999999999999911e+00

-9.425000000000000044e-01

-8.824999999999999512e-01

-8.125000000000000000e-01

-7.275000000000000355e-01

-6.250000000000000000e-01

-5.200000000000000178e-01

-3.975000000000000200e-01

-2.525000000000000022e-01

-6.500000000000000222e-02

1.499999999999999944e-01

3.449999999999999734e-01

5.050000000000000044e-01

6.099999999999999867e-01

6.674999999999999822e-01

6.949999999999999512e-01

7.075000000000000178e-01

7.199999999999999734e-01

7.325000000000000400e-01

7.475000000000000533e-01

7.550000000000000044e-01

7.724999999999999645e-01

7.850000000000000311e-01

7.974999999999999867e-01

8.125000000000000000e-01

8.299999999999999600e-01

8.499999999999999778e-01

8.699999999999999956e-01

8.900000000000000133e-01

9.100000000000000311e-01

9.425000000000000044e-01

9.749999999999999778e-01

1.007500000000000062e+00

1.040000000000000036e+00

1.080000000000000071e+00

1.122500000000000053e+00

1.162500000000000089e+00

1.197500000000000009e+00

1.239999999999999991e+00

1.272499999999999964e+00

1.304999999999999938e+00

1.332500000000000018e+00

1.357499999999999929e+00

1.377499999999999947e+00

1.392500000000000071e+00

1.397499999999999964e+00

1.392500000000000071e+00

1.382500000000000062e+00

1.357499999999999929e+00

1.320000000000000062e+00

1.274999999999999911e+00

1.227500000000000036e+00

1.162500000000000089e+00

1.097499999999999920e+00

1.027500000000000080e+00

9.599999999999999645e-01

8.850000000000000089e-01

8.074999999999999956e-01

7.325000000000000400e-01

6.574999999999999734e-01

5.799999999999999600e-01

5.050000000000000044e-01

4.224999999999999867e-01

3.499999999999999778e-01

2.800000000000000266e-01

2.200000000000000011e-01

1.575000000000000011e-01

1.024999999999999939e-01

5.249999999999999806e-02

7.499999999999999722e-03

-5.000000000000000278e-02

-8.999999999999999667e-02

-1.250000000000000000e-01

-1.625000000000000056e-01

-1.875000000000000000e-01

-2.124999999999999944e-01

-2.200000000000000011e-01

-2.275000000000000078e-01

-2.325000000000000122e-01

-2.349999999999999867e-01

-2.349999999999999867e-01

-2.399999999999999911e-01

-2.449999999999999956e-01

-2.550000000000000044e-01

-2.600000000000000089e-01

-2.600000000000000089e-01

-2.550000000000000044e-01

-2.600000000000000089e-01

-2.525000000000000022e-01

-2.525000000000000022e-01

-2.525000000000000022e-01

-2.600000000000000089e-01

-2.650000000000000133e-01

-2.650000000000000133e-01

-2.650000000000000133e-01

-2.675000000000000155e-01

-2.675000000000000155e-01

-2.675000000000000155e-01

-2.775000000000000244e-01

-2.725000000000000200e-01

-2.725000000000000200e-01

-2.650000000000000133e-01

-2.675000000000000155e-01

-2.675000000000000155e-01

-2.775000000000000244e-01

-2.800000000000000266e-01

-2.849999999999999756e-01

-2.849999999999999756e-01

-2.800000000000000266e-01

-2.725000000000000200e-01

-2.725000000000000200e-01

-2.675000000000000155e-01

-2.775000000000000244e-01

-2.775000000000000244e-01

-2.775000000000000244e-01

-2.775000000000000244e-01

-2.775000000000000244e-01

-2.775000000000000244e-01

-2.800000000000000266e-01

-2.775000000000000244e-01

-2.775000000000000244e-01

-2.725000000000000200e-01

-2.550000000000000044e-01

-2.325000000000000122e-01

-1.950000000000000067e-01

-1.625000000000000056e-01

-1.300000000000000044e-01

-1.049999999999999961e-01

-9.750000000000000333e-02

-9.249999999999999889e-02

-6.500000000000000222e-02

-3.250000000000000111e-02

7.499999999999999722e-03

3.250000000000000111e-02

4.499999999999999833e-02

4.000000000000000083e-02

4.499999999999999833e-02

6.500000000000000222e-02

5.750000000000000250e-02

-7.249999999999999500e-02

-2.999999999999999889e-01

-5.975000000000000311e-01

-9.100000000000000311e-01

-1.155000000000000027e+00

-1.332500000000000018e+00

-1.457500000000000018e+00

-1.552499999999999991e+00

-1.632500000000000062e+00

-1.739999999999999991e+00

-1.852500000000000036e+00

-1.975000000000000089e+00

-2.072499999999999787e+00

-2.104999999999999982e+00

-2.075000000000000178e+00

-1.995000000000000107e+00

-1.877499999999999947e+00

-1.729999999999999982e+00

-1.560000000000000053e+00

-1.382500000000000062e+00

-1.187500000000000000e+00

-1.034999999999999920e+00

-9.274999999999999911e-01

-8.625000000000000444e-01

-8.074999999999999956e-01

-7.524999999999999467e-01

-6.875000000000000000e-01

-6.025000000000000355e-01

-5.000000000000000000e-01

-3.900000000000000133e-01

-2.525000000000000022e-01

-9.750000000000000333e-02

9.249999999999999889e-02

2.800000000000000266e-01

4.475000000000000089e-01

5.649999999999999467e-01

6.350000000000000089e-01

6.674999999999999822e-01

6.750000000000000444e-01

6.824999999999999956e-01

6.875000000000000000e-01

6.999999999999999556e-01

7.099999999999999645e-01

7.199999999999999734e-01

7.275000000000000355e-01

7.399999999999999911e-01

7.524999999999999467e-01

7.724999999999999645e-01

7.874999999999999778e-01

8.125000000000000000e-01

8.399999999999999689e-01

8.699999999999999956e-01

9.024999999999999689e-01

9.350000000000000533e-01

9.699999999999999734e-01

1.012499999999999956e+00

1.047500000000000098e+00

1.084999999999999964e+00

1.122500000000000053e+00

1.162500000000000089e+00

1.197500000000000009e+00

1.235000000000000098e+00

1.274999999999999911e+00

1.307500000000000107e+00

1.332500000000000018e+00

1.350000000000000089e+00

1.360000000000000098e+00

1.357499999999999929e+00

1.350000000000000089e+00

1.324999999999999956e+00

1.292499999999999982e+00

1.242499999999999938e+00

1.189999999999999947e+00

1.132500000000000062e+00

1.072500000000000009e+00

1.012499999999999956e+00

9.475000000000000089e-01

8.774999999999999467e-01

8.050000000000000488e-01

7.275000000000000355e-01

6.450000000000000178e-01

5.649999999999999467e-01

4.799999999999999822e-01

4.099999999999999756e-01

3.499999999999999778e-01

2.849999999999999756e-01

2.225000000000000033e-01

1.700000000000000122e-01

1.150000000000000050e-01

5.999999999999999778e-02

1.250000000000000069e-02

-4.000000000000000083e-02

-8.999999999999999667e-02

-1.250000000000000000e-01

-1.625000000000000056e-01

-1.900000000000000022e-01

-2.124999999999999944e-01

-2.275000000000000078e-01

-2.399999999999999911e-01

-2.525000000000000022e-01

-2.675000000000000155e-01

-2.849999999999999756e-01

-2.974999999999999867e-01

-3.049999999999999933e-01

-2.999999999999999889e-01

-2.974999999999999867e-01

-2.924999999999999822e-01

-2.924999999999999822e-01

-2.924999999999999822e-01

-2.924999999999999822e-01

-2.924999999999999822e-01

-2.999999999999999889e-01

-3.099999999999999978e-01

-3.125000000000000000e-01

-3.125000000000000000e-01

-3.099999999999999978e-01

-2.974999999999999867e-01

-2.924999999999999822e-01

-2.874999999999999778e-01

-2.924999999999999822e-01

-2.924999999999999822e-01

-2.924999999999999822e-01

-2.924999999999999822e-01

-2.924999999999999822e-01

-2.924999999999999822e-01

-2.924999999999999822e-01

-2.874999999999999778e-01

-2.775000000000000244e-01

-2.725000000000000200e-01

-2.675000000000000155e-01

-2.675000000000000155e-01

-2.675000000000000155e-01

-2.725000000000000200e-01

-2.675000000000000155e-01

-2.650000000000000133e-01

-2.600000000000000089e-01

-2.600000000000000089e-01

-2.525000000000000022e-01

-2.525000000000000022e-01

-2.550000000000000044e-01

-2.600000000000000089e-01

-2.525000000000000022e-01

-2.474999999999999978e-01

-2.474999999999999978e-01

-2.474999999999999978e-01

-2.399999999999999911e-01

-2.349999999999999867e-01

-2.275000000000000078e-01

-2.074999999999999900e-01

-1.749999999999999889e-01

-1.300000000000000044e-01

-8.250000000000000389e-02

-3.749999999999999861e-02

5.000000000000000104e-03

3.250000000000000111e-02

5.000000000000000278e-02

5.249999999999999806e-02

5.750000000000000250e-02

7.749999999999999944e-02

1.150000000000000050e-01

9.249999999999999889e-02

-7.000000000000000666e-02

-3.300000000000000155e-01

-6.500000000000000222e-01

-9.625000000000000222e-01

-1.202499999999999902e+00

-1.337499999999999911e+00

-1.449999999999999956e+00

-1.534999999999999920e+00

-1.629999999999999893e+00

-1.735000000000000098e+00

-1.852500000000000036e+00

-1.962499999999999911e+00

-2.047499999999999876e+00

-2.060000000000000053e+00

-2.000000000000000000e+00

-1.889999999999999902e+00

-1.750000000000000000e+00

-1.587499999999999911e+00

-1.402500000000000080e+00

-1.209999999999999964e+00

-1.032499999999999973e+00

-8.950000000000000178e-01

-8.000000000000000444e-01

-7.425000000000000488e-01

-6.949999999999999512e-01

-6.424999999999999600e-01

-5.799999999999999600e-01

-5.050000000000000044e-01

-4.074999999999999734e-01

-2.999999999999999889e-01

-1.625000000000000056e-01

0.000000000000000000e+00

1.799999999999999933e-01

3.649999999999999911e-01

5.150000000000000133e-01

6.175000000000000488e-01

6.824999999999999956e-01

7.075000000000000178e-01

7.225000000000000311e-01

7.349999999999999867e-01

7.425000000000000488e-01

7.524999999999999467e-01

7.550000000000000044e-01

7.674999999999999600e-01

7.850000000000000311e-01

7.974999999999999867e-01

8.074999999999999956e-01

8.299999999999999600e-01

8.449999999999999734e-01

8.649999999999999911e-01

8.900000000000000133e-01

9.224999999999999867e-01

9.475000000000000089e-01

9.749999999999999778e-01

1.002499999999999947e+00

1.044999999999999929e+00

1.084999999999999964e+00

1.132500000000000062e+00

1.165000000000000036e+00

1.209999999999999964e+00

1.252499999999999947e+00

1.292499999999999982e+00

1.324999999999999956e+00

1.340000000000000080e+00

1.357499999999999929e+00

1.360000000000000098e+00

1.364999999999999991e+00

1.364999999999999991e+00

1.357499999999999929e+00

1.332500000000000018e+00

1.294999999999999929e+00

1.242499999999999938e+00

1.189999999999999947e+00

1.129999999999999893e+00

1.064999999999999947e+00

1.002499999999999947e+00

9.375000000000000000e-01

8.625000000000000444e-01

7.874999999999999778e-01

7.099999999999999645e-01

6.350000000000000089e-01

5.574999999999999956e-01

4.824999999999999845e-01

4.074999999999999734e-01

3.449999999999999734e-01

2.849999999999999756e-01

2.275000000000000078e-01

1.700000000000000122e-01

1.174999999999999933e-01

6.500000000000000222e-02

2.500000000000000139e-02

-2.750000000000000014e-02

-6.500000000000000222e-02

-9.750000000000000333e-02

-1.300000000000000044e-01

-1.625000000000000056e-01

-1.875000000000000000e-01

-2.025000000000000133e-01

-2.149999999999999967e-01

-2.225000000000000033e-01

-2.349999999999999867e-01

-2.449999999999999956e-01

-2.525000000000000022e-01

-2.600000000000000089e-01

-2.675000000000000155e-01

-2.650000000000000133e-01

-2.675000000000000155e-01

-2.675000000000000155e-01

-2.775000000000000244e-01

-2.775000000000000244e-01

-2.800000000000000266e-01

-2.849999999999999756e-01

-2.800000000000000266e-01

-2.800000000000000266e-01

-2.849999999999999756e-01

-2.849999999999999756e-01

-2.849999999999999756e-01

-2.849999999999999756e-01

-2.775000000000000244e-01

-2.725000000000000200e-01

-2.775000000000000244e-01

-2.800000000000000266e-01

-2.775000000000000244e-01

-2.775000000000000244e-01

-2.800000000000000266e-01

-2.800000000000000266e-01

-2.725000000000000200e-01

-2.725000000000000200e-01

-2.600000000000000089e-01

-2.600000000000000089e-01

-2.550000000000000044e-01

-2.600000000000000089e-01

-2.650000000000000133e-01

-2.650000000000000133e-01

-2.600000000000000089e-01

-2.525000000000000022e-01

-2.399999999999999911e-01

-2.349999999999999867e-01

-2.349999999999999867e-01

-2.349999999999999867e-01

-2.349999999999999867e-01

-2.399999999999999911e-01

-2.399999999999999911e-01

-2.349999999999999867e-01

-2.325000000000000122e-01

-2.325000000000000122e-01

-2.325000000000000122e-01

-2.275000000000000078e-01

-2.275000000000000078e-01

-2.149999999999999967e-01

-2.000000000000000111e-01

-1.499999999999999944e-01

-8.999999999999999667e-02

-2.000000000000000042e-02

4.499999999999999833e-02

7.749999999999999944e-02

8.250000000000000389e-02

8.999999999999999667e-02

1.224999999999999978e-01

1.549999999999999989e-01

9.249999999999999889e-02

-1.049999999999999961e-01

-3.900000000000000133e-01

-7.149999999999999689e-01

-1.002499999999999947e+00

-1.209999999999999964e+00

-1.352500000000000036e+00

-1.442499999999999893e+00

-1.507500000000000062e+00

-1.597499999999999920e+00

-1.715000000000000080e+00

-1.852500000000000036e+00

-1.967500000000000027e+00

-2.022499999999999964e+00

-2.015000000000000124e+00

-1.955000000000000071e+00

-1.844999999999999973e+00

-1.697500000000000009e+00

-1.512499999999999956e+00

-1.317499999999999893e+00

-1.122500000000000053e+00

-9.625000000000000222e-01

-8.499999999999999778e-01

-7.800000000000000266e-01

-7.325000000000000400e-01

-6.750000000000000444e-01

-6.025000000000000355e-01

-5.150000000000000133e-01

-4.174999999999999822e-01

-3.099999999999999978e-01

-1.799999999999999933e-01

-2.000000000000000042e-02

1.675000000000000100e-01

3.574999999999999845e-01

5.250000000000000222e-01

6.500000000000000222e-01

7.225000000000000311e-01

7.600000000000000089e-01

7.750000000000000222e-01

7.850000000000000311e-01

7.974999999999999867e-01

8.125000000000000000e-01

8.199999999999999512e-01

8.325000000000000178e-01

8.449999999999999734e-01

8.575000000000000400e-01

8.625000000000000444e-01

8.774999999999999467e-01

8.900000000000000133e-01

9.100000000000000311e-01

9.350000000000000533e-01

9.675000000000000266e-01

9.925000000000000488e-01

1.024999999999999911e+00

1.057500000000000107e+00

1.100000000000000089e+00

1.142500000000000071e+00

1.182500000000000107e+00

1.222499999999999920e+00

1.260000000000000009e+00

1.294999999999999929e+00

1.327499999999999902e+00

1.364999999999999991e+00

1.392500000000000071e+00

1.422500000000000098e+00

1.435000000000000053e+00

1.449999999999999956e+00

1.455000000000000071e+00

1.447500000000000009e+00

1.435000000000000053e+00

1.415000000000000036e+00

1.377499999999999947e+00

1.332500000000000018e+00

1.280000000000000027e+00

1.215000000000000080e+00

1.145000000000000018e+00

1.067499999999999893e+00

1.000000000000000000e+00

9.224999999999999867e-01

8.525000000000000355e-01

7.750000000000000222e-01

7.075000000000000178e-01

6.300000000000000044e-01

5.600000000000000533e-01

4.749999999999999778e-01

4.074999999999999734e-01

3.449999999999999734e-01

2.874999999999999778e-01

2.275000000000000078e-01

1.749999999999999889e-01

1.174999999999999933e-01

8.250000000000000389e-02

4.000000000000000083e-02

7.499999999999999722e-03

-3.749999999999999861e-02

-5.999999999999999778e-02

-8.999999999999999667e-02

-1.049999999999999961e-01

-1.250000000000000000e-01

-1.375000000000000111e-01

-1.499999999999999944e-01

-1.625000000000000056e-01

-1.675000000000000100e-01

-1.700000000000000122e-01

-1.700000000000000122e-01

-1.749999999999999889e-01

-1.799999999999999933e-01

-1.875000000000000000e-01

-1.900000000000000022e-01

-1.950000000000000067e-01

-2.000000000000000111e-01

-2.000000000000000111e-01

-2.000000000000000111e-01

-1.950000000000000067e-01

-2.000000000000000111e-01

-2.000000000000000111e-01

-1.950000000000000067e-01

-1.950000000000000067e-01

-1.900000000000000022e-01

-1.950000000000000067e-01

-1.900000000000000022e-01

-1.900000000000000022e-01

-1.875000000000000000e-01

-1.900000000000000022e-01

-1.900000000000000022e-01

-1.900000000000000022e-01

-1.875000000000000000e-01

-1.875000000000000000e-01

-1.799999999999999933e-01

-1.799999999999999933e-01

-1.749999999999999889e-01

-1.749999999999999889e-01

-1.799999999999999933e-01

-1.749999999999999889e-01

-1.700000000000000122e-01

-1.675000000000000100e-01

-1.675000000000000100e-01

-1.575000000000000011e-01

-1.575000000000000011e-01

-1.549999999999999989e-01

-1.549999999999999989e-01

-1.499999999999999944e-01

-1.549999999999999989e-01

-1.575000000000000011e-01

-1.625000000000000056e-01

-1.549999999999999989e-01

-1.549999999999999989e-01

-1.499999999999999944e-01

-1.474999999999999922e-01

-1.375000000000000111e-01

-1.300000000000000044e-01

-1.100000000000000006e-01

-7.749999999999999944e-02

-3.749999999999999861e-02

2.500000000000000139e-02

7.749999999999999944e-02

1.224999999999999978e-01

1.575000000000000011e-01

2.200000000000000011e-01

2.650000000000000133e-01

2.200000000000000011e-01

4.000000000000000083e-02

-2.349999999999999867e-01

-5.524999999999999911e-01

-8.325000000000000178e-01

-1.032499999999999973e+00

-1.157499999999999973e+00

-1.260000000000000009e+00

-1.344999999999999973e+00

-1.437500000000000000e+00

-1.544999999999999929e+00

-1.675000000000000044e+00

-1.794999999999999929e+00

-1.892500000000000071e+00

-1.925000000000000044e+00

-1.909999999999999920e+00

-1.844999999999999973e+00

-1.729999999999999982e+00

-1.577499999999999902e+00

-1.397499999999999964e+00

-1.215000000000000080e+00

-1.044999999999999929e+00

-9.224999999999999867e-01

-8.449999999999999734e-01

-7.974999999999999867e-01

-7.475000000000000533e-01

-6.750000000000000444e-01

-5.775000000000000133e-01

-4.675000000000000266e-01

-3.425000000000000266e-01

-1.675000000000000100e-01

5.000000000000000278e-02

2.725000000000000200e-01

4.749999999999999778e-01

6.250000000000000000e-01

7.225000000000000311e-01

7.674999999999999600e-01

7.924999999999999822e-01

8.050000000000000488e-01

8.074999999999999956e-01

8.175000000000000044e-01

8.299999999999999600e-01

8.375000000000000222e-01

8.449999999999999734e-01

8.625000000000000444e-01

8.699999999999999956e-01

8.824999999999999512e-01

8.900000000000000133e-01

9.050000000000000266e-01

9.274999999999999911e-01

9.499999999999999556e-01

9.749999999999999778e-01

1.007500000000000062e+00

1.034999999999999920e+00

1.064999999999999947e+00

1.100000000000000089e+00

1.142500000000000071e+00

1.177499999999999991e+00

1.219999999999999973e+00

1.260000000000000009e+00

1.294999999999999929e+00

1.332500000000000018e+00

1.370000000000000107e+00

1.397499999999999964e+00

1.422500000000000098e+00

1.442499999999999893e+00

1.455000000000000071e+00

1.457500000000000018e+00

1.457500000000000018e+00

1.449999999999999956e+00

1.429999999999999938e+00

1.392500000000000071e+00

1.350000000000000089e+00

1.300000000000000044e+00

1.247500000000000053e+00

1.187500000000000000e+00

1.112500000000000044e+00

1.044999999999999929e+00

9.675000000000000266e-01

8.850000000000000089e-01

8.050000000000000488e-01

7.275000000000000355e-01

6.450000000000000178e-01

5.699999999999999512e-01

4.874999999999999889e-01

4.149999999999999800e-01

3.499999999999999778e-01

2.849999999999999756e-01

2.275000000000000078e-01

1.700000000000000122e-01

1.224999999999999978e-01

7.249999999999999500e-02

3.250000000000000111e-02

-1.750000000000000167e-02

-4.499999999999999833e-02

-7.249999999999999500e-02

-1.024999999999999939e-01

-1.250000000000000000e-01

-1.375000000000000111e-01

-1.499999999999999944e-01

-1.575000000000000011e-01

-1.675000000000000100e-01

-1.700000000000000122e-01

-1.749999999999999889e-01

-1.749999999999999889e-01

-1.799999999999999933e-01

-1.700000000000000122e-01

-1.700000000000000122e-01

-1.675000000000000100e-01

-1.700000000000000122e-01

-1.675000000000000100e-01

-1.700000000000000122e-01

-1.700000000000000122e-01

-1.700000000000000122e-01

-1.700000000000000122e-01

-1.700000000000000122e-01

-1.700000000000000122e-01

-1.675000000000000100e-01

-1.675000000000000100e-01

-1.700000000000000122e-01

-1.700000000000000122e-01

-1.700000000000000122e-01

-1.700000000000000122e-01

-1.675000000000000100e-01

-1.675000000000000100e-01

-1.675000000000000100e-01

-1.675000000000000100e-01

-1.625000000000000056e-01

-1.625000000000000056e-01

-1.625000000000000056e-01

-1.625000000000000056e-01

-1.625000000000000056e-01

-1.575000000000000011e-01

-1.549999999999999989e-01

-1.549999999999999989e-01

-1.499999999999999944e-01

-1.549999999999999989e-01

-1.549999999999999989e-01

-1.575000000000000011e-01

-1.575000000000000011e-01

-1.499999999999999944e-01

-1.474999999999999922e-01

-1.424999999999999878e-01

-1.424999999999999878e-01

-1.474999999999999922e-01

-1.474999999999999922e-01

-1.375000000000000111e-01

-1.375000000000000111e-01

-1.350000000000000089e-01

-1.300000000000000044e-01

-1.174999999999999933e-01

-1.049999999999999961e-01

-8.250000000000000389e-02

-5.249999999999999806e-02

-2.500000000000000139e-02

5.000000000000000104e-03

2.500000000000000139e-02

5.249999999999999806e-02

1.150000000000000050e-01

1.799999999999999933e-01

1.575000000000000011e-01

7.499999999999999722e-03

-2.550000000000000044e-01

-5.600000000000000533e-01

-8.299999999999999600e-01

-1.020000000000000018e+00

-1.145000000000000018e+00

-1.239999999999999991e+00

-1.307500000000000107e+00

-1.389999999999999902e+00

-1.495000000000000107e+00

-1.617499999999999938e+00

-1.747500000000000053e+00

-1.814999999999999947e+00

-1.824999999999999956e+00

-1.787500000000000089e+00

-1.722499999999999920e+00

-1.612500000000000044e+00

-1.449999999999999956e+00

-1.284999999999999920e+00

-1.117499999999999938e+00

-9.549999999999999600e-01

-8.449999999999999734e-01

-7.850000000000000311e-01

-7.425000000000000488e-01

-7.025000000000000133e-01

-6.500000000000000222e-01

-5.600000000000000533e-01

-4.600000000000000200e-01

-3.300000000000000155e-01

-1.375000000000000111e-01

7.749999999999999944e-02

2.725000000000000200e-01

4.799999999999999822e-01

6.350000000000000089e-01

7.325000000000000400e-01

7.800000000000000266e-01

8.000000000000000444e-01

8.125000000000000000e-01

8.199999999999999512e-01

8.299999999999999600e-01

8.325000000000000178e-01

8.399999999999999689e-01

8.499999999999999778e-01

8.625000000000000444e-01

8.774999999999999467e-01

8.900000000000000133e-01

9.024999999999999689e-01

9.224999999999999867e-01

9.375000000000000000e-01

9.599999999999999645e-01

9.825000000000000400e-01

1.012499999999999956e+00

1.040000000000000036e+00

1.080000000000000071e+00

1.122500000000000053e+00

1.157499999999999973e+00

1.197500000000000009e+00

1.242499999999999938e+00

1.284999999999999920e+00

1.327499999999999902e+00

1.364999999999999991e+00

1.392500000000000071e+00

1.425000000000000044e+00

1.449999999999999956e+00

1.467500000000000027e+00

1.479999999999999982e+00

1.482499999999999929e+00

1.469999999999999973e+00

1.455000000000000071e+00

1.429999999999999938e+00

1.397499999999999964e+00

1.357499999999999929e+00

1.300000000000000044e+00

1.247500000000000053e+00

1.182500000000000107e+00

1.112500000000000044e+00

1.040000000000000036e+00

9.599999999999999645e-01

8.774999999999999467e-01

7.974999999999999867e-01

7.149999999999999689e-01

6.374999999999999556e-01

5.574999999999999956e-01

4.824999999999999845e-01

4.099999999999999756e-01

3.425000000000000266e-01

2.725000000000000200e-01

2.149999999999999967e-01

1.575000000000000011e-01

1.024999999999999939e-01

5.000000000000000278e-02

7.499999999999999722e-03

-4.499999999999999833e-02

-7.749999999999999944e-02

-1.049999999999999961e-01

-1.250000000000000000e-01

-1.474999999999999922e-01

-1.625000000000000056e-01

-1.749999999999999889e-01

-1.875000000000000000e-01

-1.950000000000000067e-01

-2.000000000000000111e-01

-2.025000000000000133e-01

-2.000000000000000111e-01

-1.950000000000000067e-01

-1.950000000000000067e-01

-1.900000000000000022e-01

-1.900000000000000022e-01

-1.875000000000000000e-01

-1.824999999999999956e-01

-1.824999999999999956e-01

-1.824999999999999956e-01

-1.824999999999999956e-01

-1.824999999999999956e-01

-1.824999999999999956e-01

-1.824999999999999956e-01

-1.799999999999999933e-01

-1.824999999999999956e-01

-1.824999999999999956e-01

-1.875000000000000000e-01

-1.824999999999999956e-01

-1.824999999999999956e-01

-1.824999999999999956e-01

-1.799999999999999933e-01

-1.824999999999999956e-01

-1.824999999999999956e-01

-1.824999999999999956e-01

-1.824999999999999956e-01

-1.824999999999999956e-01

-1.875000000000000000e-01

-1.824999999999999956e-01

-1.824999999999999956e-01

-1.875000000000000000e-01

-1.875000000000000000e-01

-1.875000000000000000e-01

-1.824999999999999956e-01

-1.824999999999999956e-01

-1.700000000000000122e-01

-1.799999999999999933e-01

-1.799999999999999933e-01

-1.824999999999999956e-01

-1.799999999999999933e-01

-1.799999999999999933e-01

-1.749999999999999889e-01

-1.799999999999999933e-01

-1.749999999999999889e-01

-1.700000000000000122e-01

-1.675000000000000100e-01

-1.675000000000000100e-01

-1.625000000000000056e-01

-1.549999999999999989e-01

-1.300000000000000044e-01

-1.024999999999999939e-01

-7.000000000000000666e-02

-3.749999999999999861e-02

-2.500000000000000139e-02

-2.000000000000000042e-02

0.000000000000000000e+00

2.500000000000000139e-02

4.000000000000000083e-02

-4.000000000000000083e-02

-2.200000000000000011e-01

-4.675000000000000266e-01

-7.399999999999999911e-01

-9.599999999999999645e-01

-1.112500000000000044e+00

-1.219999999999999973e+00

-1.300000000000000044e+00

-1.372500000000000053e+00

-1.457500000000000018e+00

-1.567499999999999893e+00

-1.682500000000000107e+00

-1.772499999999999964e+00

-1.812500000000000000e+00

-1.792499999999999982e+00

-1.727500000000000036e+00

-1.620000000000000107e+00

-1.479999999999999982e+00

-1.317499999999999893e+00

-1.145000000000000018e+00

-9.799999999999999822e-01

-8.375000000000000222e-01

-7.475000000000000533e-01

-7.025000000000000133e-01

-6.824999999999999956e-01

-6.550000000000000266e-01

-6.049999999999999822e-01

-5.200000000000000178e-01

-4.174999999999999822e-01

-2.849999999999999756e-01

-1.100000000000000006e-01

1.150000000000000050e-01

3.300000000000000155e-01

5.250000000000000222e-01

6.574999999999999734e-01

7.425000000000000488e-01

7.800000000000000266e-01

8.050000000000000488e-01

8.074999999999999956e-01

8.125000000000000000e-01

8.175000000000000044e-01

8.199999999999999512e-01

8.299999999999999600e-01

8.375000000000000222e-01

8.575000000000000400e-01

8.725000000000000533e-01

8.850000000000000089e-01

8.950000000000000178e-01

9.100000000000000311e-01

9.274999999999999911e-01

9.549999999999999600e-01

9.825000000000000400e-01

1.014999999999999902e+00

1.044999999999999929e+00

1.080000000000000071e+00

1.117499999999999938e+00

1.169999999999999929e+00

1.209999999999999964e+00

1.252499999999999947e+00

1.287500000000000089e+00

1.324999999999999956e+00

1.350000000000000089e+00

1.377499999999999947e+00

1.392500000000000071e+00

1.409999999999999920e+00

1.425000000000000044e+00

1.429999999999999938e+00

1.429999999999999938e+00

1.415000000000000036e+00

1.389999999999999902e+00

1.360000000000000098e+00

1.317499999999999893e+00

1.262499999999999956e+00

1.207500000000000018e+00

1.137499999999999956e+00

1.064999999999999947e+00

9.925000000000000488e-01

9.224999999999999867e-01

8.449999999999999734e-01

7.724999999999999645e-01

6.899999999999999467e-01

6.125000000000000444e-01

5.274999999999999689e-01

4.500000000000000111e-01

3.750000000000000000e-01

3.049999999999999933e-01

2.349999999999999867e-01

1.799999999999999933e-01

1.224999999999999978e-01

7.249999999999999500e-02

2.750000000000000014e-02

0.000000000000000000e+00

-6.500000000000000222e-02

-1.024999999999999939e-01

-1.375000000000000111e-01

-1.700000000000000122e-01

-2.000000000000000111e-01

-2.225000000000000033e-01

-2.349999999999999867e-01

-2.474999999999999978e-01

-2.525000000000000022e-01

-2.550000000000000044e-01

-2.550000000000000044e-01

-2.600000000000000089e-01

-2.600000000000000089e-01

-2.600000000000000089e-01

-2.550000000000000044e-01

-2.600000000000000089e-01

-2.550000000000000044e-01

-2.600000000000000089e-01

-2.600000000000000089e-01

-2.600000000000000089e-01

-2.525000000000000022e-01

-2.525000000000000022e-01

-2.550000000000000044e-01

-2.600000000000000089e-01

-2.650000000000000133e-01

-2.675000000000000155e-01

-2.650000000000000133e-01

-2.650000000000000133e-01

-2.675000000000000155e-01

-2.675000000000000155e-01

-2.675000000000000155e-01

-2.675000000000000155e-01

-2.675000000000000155e-01

-2.800000000000000266e-01

-2.924999999999999822e-01

-2.974999999999999867e-01

-2.974999999999999867e-01

-2.924999999999999822e-01

-2.874999999999999778e-01

-2.849999999999999756e-01

-2.849999999999999756e-01

-2.800000000000000266e-01

-2.800000000000000266e-01

-2.775000000000000244e-01

-2.775000000000000244e-01

-2.800000000000000266e-01

-2.849999999999999756e-01

-2.874999999999999778e-01

-2.849999999999999756e-01

-2.775000000000000244e-01

-2.725000000000000200e-01

-2.725000000000000200e-01

-2.675000000000000155e-01

-2.675000000000000155e-01

-2.600000000000000089e-01

-2.650000000000000133e-01

-2.600000000000000089e-01

-2.600000000000000089e-01

-2.525000000000000022e-01

-2.349999999999999867e-01

-2.074999999999999900e-01

-1.824999999999999956e-01

-1.575000000000000011e-01

-1.499999999999999944e-01

-1.549999999999999989e-01

-1.675000000000000100e-01

-1.700000000000000122e-01

-1.575000000000000011e-01

-1.950000000000000067e-01

-3.375000000000000222e-01

-5.600000000000000533e-01

-8.199999999999999512e-01

-1.057500000000000107e+00

-1.235000000000000098e+00

-1.352500000000000036e+00

-1.437500000000000000e+00

-1.502499999999999947e+00

-1.567499999999999893e+00

-1.649999999999999911e+00

-1.754999999999999893e+00

-1.852500000000000036e+00

-1.905000000000000027e+00

-1.892500000000000071e+00

-1.827499999999999902e+00

-1.727500000000000036e+00

-1.584999999999999964e+00

-1.405000000000000027e+00

-1.209999999999999964e+00

-1.024999999999999911e+00

-8.625000000000000444e-01

-7.425000000000000488e-01

-6.824999999999999956e-01

-6.500000000000000222e-01

-6.300000000000000044e-01

-5.925000000000000266e-01

-5.450000000000000400e-01

-4.675000000000000266e-01

-3.775000000000000022e-01

-2.650000000000000133e-01

-1.224999999999999978e-01

5.750000000000000250e-02

2.449999999999999956e-01

4.299999999999999933e-01

5.775000000000000133e-01

6.674999999999999822e-01

7.075000000000000178e-01

7.225000000000000311e-01

7.325000000000000400e-01

7.399999999999999911e-01

7.425000000000000488e-01

7.524999999999999467e-01

7.674999999999999600e-01

7.800000000000000266e-01

7.800000000000000266e-01

7.874999999999999778e-01

8.050000000000000488e-01

8.299999999999999600e-01

8.499999999999999778e-01

8.725000000000000533e-01

8.950000000000000178e-01

9.274999999999999911e-01

9.625000000000000222e-01

1.000000000000000000e+00

1.034999999999999920e+00

1.072500000000000009e+00

1.110000000000000098e+00

1.149999999999999911e+00

1.189999999999999947e+00

1.222499999999999920e+00

1.252499999999999947e+00

1.284999999999999920e+00

1.312500000000000000e+00

1.337499999999999911e+00

1.357499999999999929e+00

1.360000000000000098e+00

1.360000000000000098e+00

1.344999999999999973e+00

1.324999999999999956e+00

1.287500000000000089e+00

1.242499999999999938e+00

1.197500000000000009e+00

1.145000000000000018e+00

1.084999999999999964e+00

1.027500000000000080e+00

9.549999999999999600e-01

8.824999999999999512e-01

8.050000000000000488e-01

7.275000000000000355e-01

6.500000000000000222e-01

5.775000000000000133e-01

5.050000000000000044e-01

4.400000000000000022e-01

3.750000000000000000e-01

3.049999999999999933e-01

2.449999999999999956e-01

1.799999999999999933e-01

1.224999999999999978e-01

5.999999999999999778e-02

1.750000000000000167e-02

-4.000000000000000083e-02

-7.749999999999999944e-02

-1.174999999999999933e-01

-1.499999999999999944e-01

-1.824999999999999956e-01

-2.124999999999999944e-01

-2.325000000000000122e-01

-2.474999999999999978e-01

-2.600000000000000089e-01

-2.675000000000000155e-01

-2.800000000000000266e-01

-2.849999999999999756e-01

-2.924999999999999822e-01

-2.999999999999999889e-01

-2.999999999999999889e-01

-3.099999999999999978e-01

-3.175000000000000044e-01

-3.250000000000000111e-01

-3.200000000000000067e-01

-3.200000000000000067e-01

-3.200000000000000067e-01

-3.250000000000000111e-01

-3.200000000000000067e-01

-3.175000000000000044e-01

-3.125000000000000000e-01

-3.175000000000000044e-01

-3.099999999999999978e-01

-3.099999999999999978e-01

-2.999999999999999889e-01

-2.999999999999999889e-01

-2.974999999999999867e-01

-2.924999999999999822e-01

-2.849999999999999756e-01

-2.800000000000000266e-01

-2.849999999999999756e-01

-2.974999999999999867e-01

-2.999999999999999889e-01

-3.049999999999999933e-01

-2.999999999999999889e-01

-2.999999999999999889e-01

-2.924999999999999822e-01

-2.924999999999999822e-01

-2.924999999999999822e-01

-2.874999999999999778e-01

-2.849999999999999756e-01

-2.800000000000000266e-01

-2.800000000000000266e-01

-2.800000000000000266e-01

-2.874999999999999778e-01

-2.849999999999999756e-01

-2.874999999999999778e-01

-2.874999999999999778e-01

-2.924999999999999822e-01

-2.849999999999999756e-01

-2.800000000000000266e-01

-2.725000000000000200e-01

-2.675000000000000155e-01

-2.600000000000000089e-01

-2.600000000000000089e-01

-2.525000000000000022e-01

-2.449999999999999956e-01

-2.275000000000000078e-01

-2.025000000000000133e-01

-1.749999999999999889e-01

-1.474999999999999922e-01

-1.250000000000000000e-01

-1.224999999999999978e-01

-1.174999999999999933e-01

-8.250000000000000389e-02

-5.249999999999999806e-02

-1.150000000000000050e-01

-2.874999999999999778e-01

-5.400000000000000355e-01

-8.249999999999999556e-01

-1.067499999999999893e+00

-1.252499999999999947e+00

-1.377499999999999947e+00

-1.469999999999999973e+00

-1.547500000000000098e+00

-1.625000000000000000e+00

-1.709999999999999964e+00

-1.807500000000000107e+00

-1.885000000000000009e+00

-1.917499999999999982e+00

-1.885000000000000009e+00

-1.807500000000000107e+00

-1.689999999999999947e+00

-1.532499999999999973e+00

-1.350000000000000089e+00

-1.165000000000000036e+00

-9.875000000000000444e-01

-8.375000000000000222e-01

-7.325000000000000400e-01

-6.700000000000000400e-01

-6.350000000000000089e-01

-6.025000000000000355e-01

-5.600000000000000533e-01

-4.924999999999999933e-01

-4.099999999999999756e-01

-3.125000000000000000e-01

-2.000000000000000111e-01

-4.499999999999999833e-02

1.375000000000000111e-01

3.300000000000000155e-01

4.924999999999999933e-01

6.225000000000000533e-01

6.949999999999999512e-01

7.349999999999999867e-01

7.550000000000000044e-01

7.724999999999999645e-01

7.800000000000000266e-01

7.874999999999999778e-01

7.874999999999999778e-01

7.924999999999999822e-01

8.074999999999999956e-01

8.249999999999999556e-01

8.399999999999999689e-01

8.575000000000000400e-01

8.774999999999999467e-01

9.050000000000000266e-01

9.274999999999999911e-01

9.599999999999999645e-01

9.925000000000000488e-01

1.024999999999999911e+00

1.052499999999999991e+00

1.090000000000000080e+00

1.129999999999999893e+00

1.169999999999999929e+00

1.215000000000000080e+00

1.254999999999999893e+00

1.294999999999999929e+00

1.332500000000000018e+00

1.364999999999999991e+00

1.382500000000000062e+00

1.405000000000000027e+00

1.415000000000000036e+00

1.422500000000000098e+00

1.422500000000000098e+00

1.409999999999999920e+00

1.389999999999999902e+00

1.360000000000000098e+00

1.312500000000000000e+00

1.262499999999999956e+00

1.209999999999999964e+00

1.142500000000000071e+00

1.077499999999999902e+00

1.007500000000000062e+00

9.375000000000000000e-01

8.649999999999999911e-01

7.874999999999999778e-01

7.099999999999999645e-01

6.374999999999999556e-01

5.649999999999999467e-01

4.949999999999999956e-01

4.224999999999999867e-01

3.574999999999999845e-01

2.999999999999999889e-01

2.474999999999999978e-01

1.950000000000000067e-01

1.424999999999999878e-01

9.750000000000000333e-02

5.999999999999999778e-02

1.750000000000000167e-02

-2.750000000000000014e-02

-5.999999999999999778e-02

-8.999999999999999667e-02

-1.150000000000000050e-01

-1.350000000000000089e-01

-1.424999999999999878e-01

-1.499999999999999944e-01

-1.575000000000000011e-01

-1.625000000000000056e-01

-1.675000000000000100e-01

-1.749999999999999889e-01

-1.799999999999999933e-01

-1.875000000000000000e-01

-1.875000000000000000e-01

-1.875000000000000000e-01

-1.875000000000000000e-01

-1.875000000000000000e-01

-1.824999999999999956e-01

-1.799999999999999933e-01

-1.799999999999999933e-01

-1.824999999999999956e-01

-1.824999999999999956e-01

-1.824999999999999956e-01

-1.824999999999999956e-01

-1.799999999999999933e-01

-1.700000000000000122e-01

-1.700000000000000122e-01

-1.675000000000000100e-01

-1.700000000000000122e-01

-1.700000000000000122e-01

-1.625000000000000056e-01

-1.625000000000000056e-01

-1.625000000000000056e-01

-1.675000000000000100e-01

-1.625000000000000056e-01

-1.675000000000000100e-01

-1.625000000000000056e-01

-1.700000000000000122e-01

-1.700000000000000122e-01

-1.700000000000000122e-01

-1.700000000000000122e-01

-1.700000000000000122e-01

-1.675000000000000100e-01

-1.625000000000000056e-01

-1.575000000000000011e-01

-1.575000000000000011e-01

-1.499999999999999944e-01

-1.625000000000000056e-01

-1.625000000000000056e-01

-1.575000000000000011e-01

-1.575000000000000011e-01

-1.575000000000000011e-01

-1.625000000000000056e-01

-1.625000000000000056e-01

-1.625000000000000056e-01

-1.549999999999999989e-01

-1.499999999999999944e-01

-1.375000000000000111e-01

-1.224999999999999978e-01

-8.999999999999999667e-02

-5.999999999999999778e-02

-2.750000000000000014e-02

-1.750000000000000167e-02

7.499999999999999722e-03

2.500000000000000139e-02

8.999999999999999667e-02

1.474999999999999922e-01

1.100000000000000006e-01

-7.000000000000000666e-02

-3.375000000000000222e-01

-6.500000000000000222e-01

-9.300000000000000488e-01

-1.117499999999999938e+00

-1.242499999999999938e+00

-1.327499999999999902e+00

-1.392500000000000071e+00

-1.462499999999999911e+00

-1.554999999999999938e+00

-1.677499999999999991e+00

-1.794999999999999929e+00

-1.870000000000000107e+00

-1.872500000000000053e+00

-1.824999999999999956e+00

-1.735000000000000098e+00

-1.604999999999999982e+00

-1.437500000000000000e+00

-1.247500000000000053e+00

-1.072500000000000009e+00

-9.174999999999999822e-01

-8.125000000000000000e-01

-7.550000000000000044e-01

-7.149999999999999689e-01

-6.700000000000000400e-01

-6.175000000000000488e-01

-5.324999999999999734e-01

-4.349999999999999978e-01

-3.125000000000000000e-01

-1.499999999999999944e-01

5.750000000000000250e-02

2.550000000000000044e-01

4.425000000000000044e-01

6.049999999999999822e-01

7.025000000000000133e-01

7.550000000000000044e-01

7.724999999999999645e-01

7.974999999999999867e-01

7.924999999999999822e-01

8.074999999999999956e-01

8.125000000000000000e-01

8.249999999999999556e-01

8.325000000000000178e-01

8.399999999999999689e-01

8.449999999999999734e-01

8.649999999999999911e-01

8.824999999999999512e-01

9.024999999999999689e-01

9.174999999999999822e-01

9.375000000000000000e-01

9.699999999999999734e-01

9.925000000000000488e-01

1.034999999999999920e+00

1.064999999999999947e+00

1.100000000000000089e+00

1.145000000000000018e+00

1.182500000000000107e+00

1.219999999999999973e+00

1.260000000000000009e+00

1.304999999999999938e+00

1.350000000000000089e+00

1.377499999999999947e+00

1.402500000000000080e+00

1.425000000000000044e+00

1.437500000000000000e+00

1.442499999999999893e+00

1.442499999999999893e+00

1.435000000000000053e+00

1.425000000000000044e+00

1.392500000000000071e+00

1.357499999999999929e+00

1.312500000000000000e+00

1.260000000000000009e+00

1.202499999999999902e+00

1.142500000000000071e+00

1.064999999999999947e+00

9.925000000000000488e-01

9.150000000000000355e-01

8.299999999999999600e-01

7.600000000000000089e-01

6.824999999999999956e-01

5.975000000000000311e-01

5.124999999999999556e-01

4.425000000000000044e-01

3.649999999999999911e-01

2.999999999999999889e-01

2.399999999999999911e-01

1.875000000000000000e-01

1.424999999999999878e-01

8.250000000000000389e-02

2.750000000000000014e-02

-2.000000000000000042e-02

-5.750000000000000250e-02

-9.249999999999999889e-02

-1.300000000000000044e-01

-1.499999999999999944e-01

-1.700000000000000122e-01

-1.875000000000000000e-01

-1.950000000000000067e-01

-2.025000000000000133e-01

-2.124999999999999944e-01

-2.025000000000000133e-01

-2.025000000000000133e-01

-2.124999999999999944e-01

-2.124999999999999944e-01

-2.124999999999999944e-01

-2.074999999999999900e-01

-2.124999999999999944e-01

-2.124999999999999944e-01

-2.124999999999999944e-01

-2.025000000000000133e-01

-2.124999999999999944e-01

-2.124999999999999944e-01

-2.149999999999999967e-01

-2.124999999999999944e-01

-2.124999999999999944e-01

-2.124999999999999944e-01

-2.074999999999999900e-01

-2.025000000000000133e-01

-2.124999999999999944e-01

-2.124999999999999944e-01

-2.124999999999999944e-01

-2.149999999999999967e-01

-2.025000000000000133e-01

-2.000000000000000111e-01

-1.950000000000000067e-01

-1.875000000000000000e-01

-1.875000000000000000e-01

-1.875000000000000000e-01

-1.875000000000000000e-01

-1.875000000000000000e-01

-1.875000000000000000e-01

-1.875000000000000000e-01

-1.875000000000000000e-01

-1.875000000000000000e-01

-1.875000000000000000e-01

-1.824999999999999956e-01

-1.749999999999999889e-01

-1.749999999999999889e-01

-1.700000000000000122e-01

-1.700000000000000122e-01

-1.700000000000000122e-01

-1.700000000000000122e-01

-1.799999999999999933e-01

-1.824999999999999956e-01

-1.799999999999999933e-01

-1.799999999999999933e-01

-1.625000000000000056e-01

-1.575000000000000011e-01

-1.424999999999999878e-01

-1.224999999999999978e-01

-9.750000000000000333e-02

-7.000000000000000666e-02

-4.499999999999999833e-02

-2.000000000000000042e-02

7.499999999999999722e-03

5.249999999999999806e-02

1.250000000000000000e-01

1.799999999999999933e-01

1.049999999999999961e-01

-1.049999999999999961e-01

-3.950000000000000178e-01

-6.899999999999999467e-01

-9.375000000000000000e-01

-1.104999999999999982e+00

-1.219999999999999973e+00

-1.284999999999999920e+00

-1.357499999999999929e+00

-1.437500000000000000e+00

-1.552499999999999991e+00

-1.695000000000000062e+00

-1.794999999999999929e+00

-1.832500000000000018e+00

-1.824999999999999956e+00

-1.780000000000000027e+00

-1.707500000000000018e+00

-1.564999999999999947e+00

-1.402500000000000080e+00

-1.247500000000000053e+00

-1.072500000000000009e+00

-9.375000000000000000e-01

-8.449999999999999734e-01

-7.924999999999999822e-01

-7.524999999999999467e-01

-7.099999999999999645e-01

-6.424999999999999600e-01

-5.574999999999999956e-01

-4.475000000000000089e-01

-3.125000000000000000e-01

-1.375000000000000111e-01

7.249999999999999500e-02

2.874999999999999778e-01

4.799999999999999822e-01

6.175000000000000488e-01

6.999999999999999556e-01

7.425000000000000488e-01

7.650000000000000133e-01

7.750000000000000222e-01

7.874999999999999778e-01

7.974999999999999867e-01

8.074999999999999956e-01

8.074999999999999956e-01

8.175000000000000044e-01

8.299999999999999600e-01

8.399999999999999689e-01

8.499999999999999778e-01

8.625000000000000444e-01

8.725000000000000533e-01

9.024999999999999689e-01

9.274999999999999911e-01

9.499999999999999556e-01

9.799999999999999822e-01

1.014999999999999902e+00

1.044999999999999929e+00

1.090000000000000080e+00

1.129999999999999893e+00

1.175000000000000044e+00

1.215000000000000080e+00

1.260000000000000009e+00

1.300000000000000044e+00

1.332500000000000018e+00

1.364999999999999991e+00

1.389999999999999902e+00

1.409999999999999920e+00

1.422500000000000098e+00

1.429999999999999938e+00

1.435000000000000053e+00

1.429999999999999938e+00

1.409999999999999920e+00

1.385000000000000009e+00

1.350000000000000089e+00

1.300000000000000044e+00

1.252499999999999947e+00

1.187500000000000000e+00

1.125000000000000000e+00

1.057500000000000107e+00

9.925000000000000488e-01

9.224999999999999867e-01

8.399999999999999689e-01

7.600000000000000089e-01

6.750000000000000444e-01

5.925000000000000266e-01

5.124999999999999556e-01

4.425000000000000044e-01

3.699999999999999956e-01

3.049999999999999933e-01

2.399999999999999911e-01

1.824999999999999956e-01

1.250000000000000000e-01

7.249999999999999500e-02

2.750000000000000014e-02

-2.000000000000000042e-02

-5.249999999999999806e-02

-8.500000000000000611e-02

-1.150000000000000050e-01

-1.350000000000000089e-01

-1.499999999999999944e-01

-1.675000000000000100e-01

-1.749999999999999889e-01

-1.824999999999999956e-01

-1.900000000000000022e-01

-2.000000000000000111e-01

-1.950000000000000067e-01

-1.950000000000000067e-01

-1.950000000000000067e-01

-2.000000000000000111e-01

-1.950000000000000067e-01

-2.000000000000000111e-01

-2.000000000000000111e-01

-2.025000000000000133e-01

-2.074999999999999900e-01

-2.074999999999999900e-01

-2.025000000000000133e-01

-2.025000000000000133e-01

-2.025000000000000133e-01

-2.000000000000000111e-01

-2.025000000000000133e-01

-2.025000000000000133e-01

-2.025000000000000133e-01

-2.025000000000000133e-01

-2.025000000000000133e-01

-2.074999999999999900e-01

-2.149999999999999967e-01

-2.124999999999999944e-01

-2.124999999999999944e-01

-2.124999999999999944e-01

-2.225000000000000033e-01

-2.275000000000000078e-01

-2.275000000000000078e-01

-2.225000000000000033e-01

-2.225000000000000033e-01

-2.200000000000000011e-01

-2.225000000000000033e-01

-2.200000000000000011e-01

-2.200000000000000011e-01

-2.200000000000000011e-01

-2.225000000000000033e-01

-2.149999999999999967e-01

-2.200000000000000011e-01

-2.149999999999999967e-01

-2.149999999999999967e-01

-2.074999999999999900e-01

-2.074999999999999900e-01

-2.124999999999999944e-01

-2.149999999999999967e-01

-2.225000000000000033e-01

-2.275000000000000078e-01

-2.275000000000000078e-01

-2.200000000000000011e-01

-2.025000000000000133e-01

-1.799999999999999933e-01

-1.375000000000000111e-01

-8.250000000000000389e-02

-2.500000000000000139e-02

4.499999999999999833e-02

7.749999999999999944e-02

1.024999999999999939e-01

1.250000000000000000e-01

1.499999999999999944e-01

8.250000000000000389e-02

-1.224999999999999978e-01

-3.950000000000000178e-01

-6.949999999999999512e-01

-9.549999999999999600e-01

-1.129999999999999893e+00

-1.242499999999999938e+00

-1.324999999999999956e+00

-1.402500000000000080e+00

-1.487500000000000044e+00

-1.580000000000000071e+00

-1.697500000000000009e+00

-1.812500000000000000e+00

-1.889999999999999902e+00

-1.897499999999999964e+00

-1.857499999999999929e+00

-1.772499999999999964e+00

-1.662500000000000089e+00

-1.500000000000000000e+00

-1.327499999999999902e+00

-1.142500000000000071e+00

-9.825000000000000400e-01

-8.625000000000000444e-01

-7.974999999999999867e-01

-7.600000000000000089e-01

-7.199999999999999734e-01

-6.700000000000000400e-01

-5.925000000000000266e-01

-4.949999999999999956e-01

-3.900000000000000133e-01

-2.525000000000000022e-01

-8.500000000000000611e-02

1.150000000000000050e-01

3.099999999999999978e-01

4.824999999999999845e-01

6.125000000000000444e-01

6.774999999999999911e-01

7.075000000000000178e-01

7.075000000000000178e-01

7.149999999999999689e-01

7.149999999999999689e-01

7.275000000000000355e-01

7.349999999999999867e-01

7.524999999999999467e-01

7.650000000000000133e-01

7.750000000000000222e-01

7.850000000000000311e-01

8.000000000000000444e-01

8.175000000000000044e-01

8.399999999999999689e-01

8.649999999999999911e-01

8.950000000000000178e-01

9.224999999999999867e-01

9.549999999999999600e-01

9.875000000000000444e-01

1.014999999999999902e+00

1.044999999999999929e+00

1.084999999999999964e+00

1.125000000000000000e+00

1.165000000000000036e+00

1.207500000000000018e+00

1.235000000000000098e+00

1.267500000000000071e+00

1.292499999999999982e+00

1.320000000000000062e+00

1.337499999999999911e+00

1.344999999999999973e+00

1.340000000000000080e+00

1.340000000000000080e+00

1.327499999999999902e+00

1.307500000000000107e+00

1.272499999999999964e+00

1.222499999999999920e+00

1.162500000000000089e+00

1.097499999999999920e+00

1.027500000000000080e+00

9.625000000000000222e-01

8.950000000000000178e-01

8.175000000000000044e-01

7.349999999999999867e-01

6.500000000000000222e-01

5.725000000000000089e-01

5.050000000000000044e-01

4.349999999999999978e-01

3.699999999999999956e-01

2.974999999999999867e-01

2.225000000000000033e-01

1.499999999999999944e-01

8.999999999999999667e-02

4.000000000000000083e-02

-1.750000000000000167e-02

-5.750000000000000250e-02

-1.024999999999999939e-01

-1.350000000000000089e-01

-1.749999999999999889e-01

-2.074999999999999900e-01

-2.325000000000000122e-01

-2.449999999999999956e-01

-2.600000000000000089e-01

-2.650000000000000133e-01

-2.849999999999999756e-01

-2.974999999999999867e-01

-3.125000000000000000e-01

-3.125000000000000000e-01

-3.125000000000000000e-01

-3.125000000000000000e-01

-3.099999999999999978e-01

-3.099999999999999978e-01

-3.049999999999999933e-01

-3.049999999999999933e-01

-2.999999999999999889e-01

-2.974999999999999867e-01

-2.874999999999999778e-01

-2.849999999999999756e-01

-2.775000000000000244e-01

-2.849999999999999756e-01

-2.849999999999999756e-01

-2.849999999999999756e-01

-2.849999999999999756e-01

-2.800000000000000266e-01

-2.775000000000000244e-01

-2.725000000000000200e-01

-2.675000000000000155e-01

-2.725000000000000200e-01

-2.725000000000000200e-01

-2.675000000000000155e-01

-2.725000000000000200e-01

-2.725000000000000200e-01

-2.675000000000000155e-01

-2.675000000000000155e-01

-2.600000000000000089e-01

-2.550000000000000044e-01

-2.474999999999999978e-01

-2.525000000000000022e-01

-2.550000000000000044e-01

-2.525000000000000022e-01

-2.449999999999999956e-01

-2.474999999999999978e-01

-2.525000000000000022e-01

-2.525000000000000022e-01

-2.525000000000000022e-01

-2.474999999999999978e-01

-2.474999999999999978e-01

-2.449999999999999956e-01

-2.474999999999999978e-01

-2.474999999999999978e-01

-2.449999999999999956e-01

-2.349999999999999867e-01

-2.325000000000000122e-01

-2.275000000000000078e-01

-2.149999999999999967e-01

-1.799999999999999933e-01

-1.174999999999999933e-01

-5.000000000000000278e-02

7.499999999999999722e-03

4.000000000000000083e-02

4.499999999999999833e-02

4.000000000000000083e-02

5.000000000000000278e-02

8.250000000000000389e-02

8.250000000000000389e-02

-5.000000000000000278e-02

-2.800000000000000266e-01

-5.925000000000000266e-01

-9.050000000000000266e-01

-1.157499999999999973e+00

-1.320000000000000062e+00

-1.425000000000000044e+00

-1.495000000000000107e+00

-1.572500000000000009e+00

-1.677499999999999991e+00

-1.807500000000000107e+00

-1.929999999999999938e+00

-2.020000000000000018e+00

-2.035000000000000142e+00

-2.000000000000000000e+00

-1.922500000000000098e+00

-1.804999999999999938e+00

-1.652500000000000080e+00

-1.469999999999999973e+00

-1.284999999999999920e+00

-1.092500000000000027e+00

-9.499999999999999556e-01

-8.499999999999999778e-01

-7.850000000000000311e-01

-7.349999999999999867e-01

-6.824999999999999956e-01

-6.175000000000000488e-01

-5.400000000000000355e-01

-4.425000000000000044e-01

-3.375000000000000222e-01

-2.149999999999999967e-01

-6.500000000000000222e-02

1.150000000000000050e-01

2.874999999999999778e-01

4.425000000000000044e-01

5.600000000000000533e-01

6.350000000000000089e-01

6.700000000000000400e-01

6.875000000000000000e-01

6.875000000000000000e-01

6.875000000000000000e-01

6.875000000000000000e-01

6.999999999999999556e-01

7.075000000000000178e-01

7.225000000000000311e-01

7.399999999999999911e-01

7.475000000000000533e-01

7.674999999999999600e-01

7.974999999999999867e-01

8.199999999999999512e-01

8.399999999999999689e-01

8.575000000000000400e-01

8.824999999999999512e-01

9.174999999999999822e-01

9.599999999999999645e-01

1.000000000000000000e+00

1.034999999999999920e+00

1.077499999999999902e+00

1.117499999999999938e+00

1.162500000000000089e+00

1.202499999999999902e+00

1.235000000000000098e+00

1.262499999999999956e+00

1.284999999999999920e+00

1.300000000000000044e+00

1.317499999999999893e+00

1.320000000000000062e+00

1.317499999999999893e+00

1.300000000000000044e+00

1.274999999999999911e+00

1.247500000000000053e+00

1.209999999999999964e+00

1.155000000000000027e+00

1.090000000000000080e+00

1.024999999999999911e+00

9.475000000000000089e-01

8.774999999999999467e-01

8.050000000000000488e-01

7.349999999999999867e-01

6.624999999999999778e-01

5.899999999999999689e-01

5.124999999999999556e-01

4.425000000000000044e-01

3.750000000000000000e-01

3.099999999999999978e-01

2.449999999999999956e-01

1.900000000000000022e-01

1.375000000000000111e-01

8.999999999999999667e-02

3.749999999999999861e-02

-2.000000000000000042e-02

-6.500000000000000222e-02

-1.049999999999999961e-01

-1.474999999999999922e-01

-1.700000000000000122e-01

-1.950000000000000067e-01

-2.149999999999999967e-01

-2.349999999999999867e-01

-2.525000000000000022e-01

-2.600000000000000089e-01

-2.650000000000000133e-01

-2.650000000000000133e-01

-2.675000000000000155e-01

-2.600000000000000089e-01

-2.650000000000000133e-01

-2.725000000000000200e-01

-2.800000000000000266e-01

-2.874999999999999778e-01

-2.924999999999999822e-01

-2.874999999999999778e-01

-2.849999999999999756e-01

-2.800000000000000266e-01

-2.775000000000000244e-01

-2.725000000000000200e-01

-2.775000000000000244e-01

-2.775000000000000244e-01

-2.775000000000000244e-01

-2.675000000000000155e-01

-2.600000000000000089e-01

-2.600000000000000089e-01

-2.600000000000000089e-01

-2.600000000000000089e-01

-2.600000000000000089e-01

-2.600000000000000089e-01

-2.525000000000000022e-01

-2.525000000000000022e-01

-2.525000000000000022e-01

-2.525000000000000022e-01

-2.449999999999999956e-01

-2.449999999999999956e-01

-2.449999999999999956e-01

-2.449999999999999956e-01

-2.399999999999999911e-01

-2.449999999999999956e-01

-2.399999999999999911e-01

-2.349999999999999867e-01

-2.325000000000000122e-01

-2.275000000000000078e-01

-2.225000000000000033e-01

-2.225000000000000033e-01

-2.200000000000000011e-01

-2.124999999999999944e-01

-2.074999999999999900e-01

-2.074999999999999900e-01

-2.074999999999999900e-01

-2.000000000000000111e-01

-1.799999999999999933e-01

-1.375000000000000111e-01

-1.024999999999999939e-01

-5.999999999999999778e-02

-3.250000000000000111e-02

0.000000000000000000e+00

2.750000000000000014e-02

5.999999999999999778e-02

8.500000000000000611e-02

1.024999999999999939e-01

1.100000000000000006e-01

1.350000000000000089e-01

1.799999999999999933e-01

2.149999999999999967e-01

1.100000000000000006e-01

-1.150000000000000050e-01

-4.074999999999999734e-01

-7.225000000000000311e-01

-1.000000000000000000e+00

-1.197500000000000009e+00

-1.340000000000000080e+00

-1.442499999999999893e+00

-1.532499999999999973e+00

-1.632500000000000062e+00

-1.754999999999999893e+00

-1.885000000000000009e+00

-1.995000000000000107e+00

-2.047499999999999876e+00

-2.035000000000000142e+00

-1.987500000000000044e+00

-1.897499999999999964e+00

-1.772499999999999964e+00

-1.597499999999999920e+00

-1.405000000000000027e+00

-1.209999999999999964e+00

-1.047500000000000098e+00

-9.300000000000000488e-01

-8.499999999999999778e-01

-7.874999999999999778e-01

-7.325000000000000400e-01

-6.574999999999999734e-01

-5.725000000000000089e-01

-4.724999999999999756e-01

-3.624999999999999889e-01

-2.275000000000000078e-01

-5.750000000000000250e-02

1.499999999999999944e-01

3.449999999999999734e-01

5.124999999999999556e-01

6.300000000000000044e-01

6.899999999999999467e-01

7.199999999999999734e-01

7.275000000000000355e-01

7.425000000000000488e-01

7.524999999999999467e-01

7.600000000000000089e-01

7.650000000000000133e-01

7.800000000000000266e-01

7.974999999999999867e-01

8.175000000000000044e-01

8.325000000000000178e-01

8.575000000000000400e-01

8.725000000000000533e-01

8.900000000000000133e-01

9.024999999999999689e-01

9.224999999999999867e-01

9.425000000000000044e-01

9.749999999999999778e-01

1.012499999999999956e+00

1.047500000000000098e+00

1.092500000000000027e+00

1.132500000000000062e+00

1.162500000000000089e+00

1.197500000000000009e+00

1.239999999999999991e+00

1.274999999999999911e+00

1.312500000000000000e+00

1.344999999999999973e+00

1.372500000000000053e+00

1.397499999999999964e+00

1.415000000000000036e+00

1.422500000000000098e+00

1.422500000000000098e+00

1.402500000000000080e+00

1.372500000000000053e+00

1.332500000000000018e+00

1.287500000000000089e+00

1.229999999999999982e+00

1.169999999999999929e+00

1.100000000000000089e+00

1.034999999999999920e+00

9.675000000000000266e-01

8.850000000000000089e-01

8.050000000000000488e-01

7.199999999999999734e-01

6.424999999999999600e-01

5.699999999999999512e-01

4.874999999999999889e-01

4.149999999999999800e-01

3.499999999999999778e-01

2.775000000000000244e-01

2.200000000000000011e-01

1.575000000000000011e-01

1.049999999999999961e-01

5.750000000000000250e-02

1.250000000000000069e-02

-4.499999999999999833e-02

-8.250000000000000389e-02

-1.174999999999999933e-01

-1.474999999999999922e-01

-1.700000000000000122e-01

-1.875000000000000000e-01

-2.025000000000000133e-01

-2.124999999999999944e-01

-2.200000000000000011e-01

-2.275000000000000078e-01

-2.325000000000000122e-01

-2.349999999999999867e-01

-2.399999999999999911e-01

-2.399999999999999911e-01

-2.399999999999999911e-01

-2.325000000000000122e-01

-2.325000000000000122e-01

-2.325000000000000122e-01

-2.275000000000000078e-01

-2.325000000000000122e-01

-2.349999999999999867e-01

-2.349999999999999867e-01

-2.349999999999999867e-01

-2.349999999999999867e-01

-2.399999999999999911e-01

-2.449999999999999956e-01

-2.449999999999999956e-01

-2.449999999999999956e-01

-2.449999999999999956e-01

-2.449999999999999956e-01

-2.449999999999999956e-01

-2.449999999999999956e-01

-2.474999999999999978e-01

-2.474999999999999978e-01

-2.474999999999999978e-01

-2.474999999999999978e-01

-2.449999999999999956e-01

-2.399999999999999911e-01

-2.399999999999999911e-01

-2.349999999999999867e-01

-2.349999999999999867e-01

-2.399999999999999911e-01

-2.349999999999999867e-01

-2.325000000000000122e-01

-2.325000000000000122e-01

-2.325000000000000122e-01

-2.325000000000000122e-01

-2.325000000000000122e-01

-2.349999999999999867e-01

-2.325000000000000122e-01

-2.275000000000000078e-01

-2.025000000000000133e-01

-1.700000000000000122e-01

-1.300000000000000044e-01

-1.024999999999999939e-01

-7.249999999999999500e-02

-5.999999999999999778e-02

-5.249999999999999806e-02

-5.000000000000000278e-02

-3.250000000000000111e-02

7.499999999999999722e-03

5.000000000000000278e-02

8.999999999999999667e-02

1.150000000000000050e-01

1.224999999999999978e-01

1.350000000000000089e-01

1.625000000000000056e-01

1.749999999999999889e-01

7.749999999999999944e-02

-1.474999999999999922e-01

-4.500000000000000111e-01

-7.724999999999999645e-01

-1.034999999999999920e+00

-1.219999999999999973e+00

-1.352500000000000036e+00

-1.449999999999999956e+00

-1.540000000000000036e+00

-1.642500000000000071e+00

-1.760000000000000009e+00

-1.885000000000000009e+00

-1.995000000000000107e+00

-2.060000000000000053e+00

-2.067499999999999893e+00

-2.032500000000000195e+00

-1.955000000000000071e+00

-1.832500000000000018e+00

-1.665000000000000036e+00

-1.479999999999999982e+00

-1.287500000000000089e+00

-1.110000000000000098e+00

-9.825000000000000400e-01

-8.974999999999999645e-01

-8.325000000000000178e-01

-7.650000000000000133e-01

-6.824999999999999956e-01

-5.899999999999999689e-01

-4.824999999999999845e-01

-3.574999999999999845e-01

-2.074999999999999900e-01

-2.000000000000000042e-02

1.950000000000000067e-01

3.850000000000000089e-01

5.374999999999999778e-01

6.374999999999999556e-01

6.899999999999999467e-01

7.199999999999999734e-01

7.325000000000000400e-01

7.425000000000000488e-01

7.524999999999999467e-01

7.600000000000000089e-01

7.674999999999999600e-01

7.800000000000000266e-01

7.924999999999999822e-01

8.074999999999999956e-01

8.249999999999999556e-01

8.449999999999999734e-01

8.625000000000000444e-01

8.774999999999999467e-01

8.974999999999999645e-01

9.174999999999999822e-01

9.475000000000000089e-01

9.749999999999999778e-01

1.014999999999999902e+00

1.044999999999999929e+00

1.084999999999999964e+00

1.122500000000000053e+00

1.165000000000000036e+00

1.202499999999999902e+00

1.247500000000000053e+00

1.280000000000000027e+00

1.312500000000000000e+00

1.337499999999999911e+00

1.360000000000000098e+00

1.377499999999999947e+00

1.385000000000000009e+00

1.389999999999999902e+00

1.382500000000000062e+00

1.364999999999999991e+00

1.340000000000000080e+00

1.312500000000000000e+00

1.267500000000000071e+00

1.219999999999999973e+00

1.155000000000000027e+00

1.090000000000000080e+00

1.020000000000000018e+00

9.475000000000000089e-01

8.699999999999999956e-01

7.924999999999999822e-01

7.099999999999999645e-01

6.350000000000000089e-01

5.474999999999999867e-01

4.749999999999999778e-01

3.975000000000000200e-01

3.250000000000000111e-01

2.550000000000000044e-01

1.950000000000000067e-01

1.350000000000000089e-01

8.500000000000000611e-02

3.250000000000000111e-02

-2.000000000000000042e-02

-5.999999999999999778e-02

-1.024999999999999939e-01

-1.350000000000000089e-01

-1.625000000000000056e-01

-1.875000000000000000e-01

-2.025000000000000133e-01

-2.225000000000000033e-01

-2.349999999999999867e-01

-2.449999999999999956e-01

-2.525000000000000022e-01

-2.525000000000000022e-01

-2.600000000000000089e-01

-2.550000000000000044e-01

-2.600000000000000089e-01

-2.550000000000000044e-01

-2.600000000000000089e-01

-2.550000000000000044e-01

-2.525000000000000022e-01

-2.474999999999999978e-01

-2.525000000000000022e-01

-2.525000000000000022e-01

-2.550000000000000044e-01

-2.525000000000000022e-01

-2.474999999999999978e-01

-2.474999999999999978e-01

-2.449999999999999956e-01

-2.399999999999999911e-01

-2.449999999999999956e-01

-2.474999999999999978e-01

-2.525000000000000022e-01

-2.525000000000000022e-01

-2.525000000000000022e-01

-2.525000000000000022e-01

-2.474999999999999978e-01

-2.474999999999999978e-01

-2.474999999999999978e-01

-2.525000000000000022e-01

-2.474999999999999978e-01

-2.474999999999999978e-01

-2.474999999999999978e-01

-2.525000000000000022e-01

-2.449999999999999956e-01

-2.449999999999999956e-01

-2.449999999999999956e-01

-2.449999999999999956e-01

-2.399999999999999911e-01

-2.349999999999999867e-01

-2.275000000000000078e-01

-2.124999999999999944e-01

-1.799999999999999933e-01

-1.424999999999999878e-01

-1.049999999999999961e-01

-7.249999999999999500e-02

-5.999999999999999778e-02

-5.249999999999999806e-02

-5.000000000000000278e-02

-5.000000000000000278e-02

-4.499999999999999833e-02

-2.750000000000000014e-02

1.750000000000000167e-02

5.000000000000000278e-02

7.249999999999999500e-02

9.249999999999999889e-02

9.249999999999999889e-02

9.750000000000000333e-02

1.150000000000000050e-01

1.549999999999999989e-01

1.375000000000000111e-01

5.000000000000000104e-03

-2.525000000000000022e-01

-5.524999999999999911e-01

-8.625000000000000444e-01

-1.097499999999999920e+00

-1.262499999999999956e+00

-1.382500000000000062e+00

-1.469999999999999973e+00

-1.552499999999999991e+00

-1.652500000000000080e+00

-1.780000000000000027e+00

-1.909999999999999920e+00

-2.020000000000000018e+00

-2.075000000000000178e+00

-2.075000000000000178e+00

-2.022499999999999964e+00

-1.937500000000000000e+00

-1.800000000000000044e+00

-1.632500000000000062e+00

-1.442499999999999893e+00

-1.242499999999999938e+00

-1.097499999999999920e+00

-1.000000000000000000e+00

-9.274999999999999911e-01

-8.699999999999999956e-01

-8.000000000000000444e-01

-7.149999999999999689e-01

-6.175000000000000488e-01

-5.050000000000000044e-01

-3.750000000000000000e-01

-2.149999999999999967e-01

-2.000000000000000042e-02

2.025000000000000133e-01

3.950000000000000178e-01

5.400000000000000355e-01

6.350000000000000089e-01

6.824999999999999956e-01

7.149999999999999689e-01

7.349999999999999867e-01

7.475000000000000533e-01

7.600000000000000089e-01

7.650000000000000133e-01

7.674999999999999600e-01

7.724999999999999645e-01

7.850000000000000311e-01

7.924999999999999822e-01

8.050000000000000488e-01

8.199999999999999512e-01

8.375000000000000222e-01

8.575000000000000400e-01

8.850000000000000089e-01

9.100000000000000311e-01

9.499999999999999556e-01

9.875000000000000444e-01

1.027500000000000080e+00

1.057500000000000107e+00

1.084999999999999964e+00

1.122500000000000053e+00

1.162500000000000089e+00

1.197500000000000009e+00

1.239999999999999991e+00

1.280000000000000027e+00

1.312500000000000000e+00

1.340000000000000080e+00

1.364999999999999991e+00

1.385000000000000009e+00

1.397499999999999964e+00

1.402500000000000080e+00

1.389999999999999902e+00

1.370000000000000107e+00

1.337499999999999911e+00

1.294999999999999929e+00

1.252499999999999947e+00

1.202499999999999902e+00

1.142500000000000071e+00

1.077499999999999902e+00

1.002499999999999947e+00

9.224999999999999867e-01

8.399999999999999689e-01

7.600000000000000089e-01

6.774999999999999911e-01

6.025000000000000355e-01

5.250000000000000222e-01

4.425000000000000044e-01

3.649999999999999911e-01

2.924999999999999822e-01

2.275000000000000078e-01

1.700000000000000122e-01

1.150000000000000050e-01

5.750000000000000250e-02

1.250000000000000069e-02

-5.000000000000000278e-02

-8.999999999999999667e-02

-1.250000000000000000e-01

-1.549999999999999989e-01

-1.749999999999999889e-01

-1.900000000000000022e-01

-2.124999999999999944e-01

-2.275000000000000078e-01

-2.449999999999999956e-01

-2.474999999999999978e-01

-2.525000000000000022e-01

-2.550000000000000044e-01

-2.525000000000000022e-01

-2.525000000000000022e-01

-2.474999999999999978e-01

-2.525000000000000022e-01

-2.525000000000000022e-01

-2.525000000000000022e-01

-2.550000000000000044e-01

-2.600000000000000089e-01

-2.650000000000000133e-01

-2.675000000000000155e-01

-2.675000000000000155e-01

-2.675000000000000155e-01

-2.650000000000000133e-01

-2.675000000000000155e-01

-2.725000000000000200e-01

-2.849999999999999756e-01

-2.849999999999999756e-01

-2.874999999999999778e-01

-2.775000000000000244e-01

-2.775000000000000244e-01

-2.775000000000000244e-01

-2.800000000000000266e-01

-2.849999999999999756e-01

-2.924999999999999822e-01

-2.974999999999999867e-01

-2.999999999999999889e-01

-3.099999999999999978e-01

-3.175000000000000044e-01

-3.125000000000000000e-01

-2.999999999999999889e-01

-2.924999999999999822e-01

-2.849999999999999756e-01

-2.924999999999999822e-01

-2.924999999999999822e-01

-2.924999999999999822e-01

-2.775000000000000244e-01

-2.474999999999999978e-01

-2.025000000000000133e-01

-1.700000000000000122e-01

-1.424999999999999878e-01

-1.375000000000000111e-01

-1.350000000000000089e-01

-1.375000000000000111e-01

-1.350000000000000089e-01

-1.350000000000000089e-01

-1.224999999999999978e-01

-1.024999999999999939e-01

-7.749999999999999944e-02

-5.249999999999999806e-02

-2.500000000000000139e-02

1.750000000000000167e-02

4.000000000000000083e-02

5.999999999999999778e-02

5.999999999999999778e-02

4.000000000000000083e-02

3.749999999999999861e-02

3.250000000000000111e-02

-6.500000000000000222e-02

-2.600000000000000089e-01

-5.474999999999999867e-01

-8.649999999999999911e-01

-1.149999999999999911e+00

-1.344999999999999973e+00

-1.482499999999999929e+00

-1.580000000000000071e+00

-1.657499999999999973e+00

-1.729999999999999982e+00

-1.837499999999999911e+00

-1.957500000000000018e+00

-2.084999999999999964e+00

-2.157500000000000195e+00

-2.165000000000000036e+00

-2.117500000000000160e+00

-2.032500000000000195e+00

-1.889999999999999902e+00

-1.715000000000000080e+00

-1.514999999999999902e+00

-1.320000000000000062e+00

-1.145000000000000018e+00

-1.014999999999999902e+00

-9.274999999999999911e-01

-8.625000000000000444e-01

-8.000000000000000444e-01

-7.325000000000000400e-01

-6.550000000000000266e-01

-5.699999999999999512e-01

-4.724999999999999756e-01

-3.524999999999999800e-01

-2.149999999999999967e-01

-5.000000000000000278e-02

1.424999999999999878e-01

3.250000000000000111e-01

4.675000000000000266e-01

5.649999999999999467e-01

6.125000000000000444e-01

6.374999999999999556e-01

6.500000000000000222e-01

6.624999999999999778e-01

6.700000000000000400e-01

6.774999999999999911e-01

6.899999999999999467e-01

7.025000000000000133e-01

7.149999999999999689e-01

7.325000000000000400e-01

7.475000000000000533e-01

7.674999999999999600e-01

7.850000000000000311e-01

7.974999999999999867e-01

8.299999999999999600e-01

8.625000000000000444e-01

9.050000000000000266e-01

9.425000000000000044e-01

9.825000000000000400e-01

1.014999999999999902e+00

1.047500000000000098e+00

1.084999999999999964e+00

1.129999999999999893e+00

1.165000000000000036e+00

1.202499999999999902e+00

1.235000000000000098e+00

1.262499999999999956e+00

1.287500000000000089e+00

1.304999999999999938e+00

1.317499999999999893e+00

1.317499999999999893e+00

1.307500000000000107e+00

1.292499999999999982e+00

1.260000000000000009e+00

1.219999999999999973e+00

1.165000000000000036e+00

1.100000000000000089e+00

1.040000000000000036e+00

9.825000000000000400e-01

9.224999999999999867e-01

8.625000000000000444e-01

7.800000000000000266e-01

6.949999999999999512e-01

6.175000000000000488e-01

5.274999999999999689e-01

4.475000000000000089e-01

3.775000000000000022e-01

3.125000000000000000e-01

2.474999999999999978e-01

1.875000000000000000e-01

1.250000000000000000e-01

7.000000000000000666e-02

2.500000000000000139e-02

-2.000000000000000042e-02

-5.999999999999999778e-02

-9.750000000000000333e-02

-1.350000000000000089e-01

-1.700000000000000122e-01

-2.025000000000000133e-01

-2.325000000000000122e-01

-2.525000000000000022e-01

-2.725000000000000200e-01

-2.874999999999999778e-01

-2.924999999999999822e-01

-2.924999999999999822e-01

-2.924999999999999822e-01

-2.974999999999999867e-01

-2.999999999999999889e-01

-3.049999999999999933e-01

-3.099999999999999978e-01

-3.049999999999999933e-01

-2.999999999999999889e-01

-2.974999999999999867e-01

-2.974999999999999867e-01

-2.999999999999999889e-01

-3.049999999999999933e-01

-3.099999999999999978e-01

-3.099999999999999978e-01

-2.999999999999999889e-01

-2.999999999999999889e-01

-3.049999999999999933e-01

-3.099999999999999978e-01

-2.999999999999999889e-01

-2.974999999999999867e-01

-2.974999999999999867e-01

-2.974999999999999867e-01

-2.999999999999999889e-01

-3.099999999999999978e-01

-3.175000000000000044e-01

-3.049999999999999933e-01

-2.974999999999999867e-01

-2.924999999999999822e-01

-2.974999999999999867e-01

-2.974999999999999867e-01

-2.974999999999999867e-01

-2.974999999999999867e-01

-2.974999999999999867e-01

-2.924999999999999822e-01

-2.849999999999999756e-01

-2.600000000000000089e-01

-2.325000000000000122e-01

-1.950000000000000067e-01

-1.675000000000000100e-01

-1.474999999999999922e-01

-1.300000000000000044e-01

-1.250000000000000000e-01

-1.300000000000000044e-01

-1.300000000000000044e-01

-1.250000000000000000e-01

-1.100000000000000006e-01

-8.999999999999999667e-02

-8.250000000000000389e-02

-8.500000000000000611e-02

-1.024999999999999939e-01

-9.750000000000000333e-02

-7.749999999999999944e-02

-3.749999999999999861e-02

0.000000000000000000e+00

1.750000000000000167e-02

1.750000000000000167e-02

7.499999999999999722e-03

1.250000000000000069e-02

3.749999999999999861e-02

2.000000000000000042e-02

-1.174999999999999933e-01

-3.574999999999999845e-01

-6.624999999999999778e-01

-9.825000000000000400e-01

-1.247500000000000053e+00

-1.435000000000000053e+00

-1.554999999999999938e+00

-1.645000000000000018e+00

-1.717500000000000027e+00

-1.807500000000000107e+00

-1.925000000000000044e+00

-2.060000000000000053e+00

-2.172499999999999876e+00

-2.227500000000000036e+00

-2.209999999999999964e+00

-2.129999999999999893e+00

-2.002499999999999947e+00

-1.837499999999999911e+00

-1.645000000000000018e+00

-1.437500000000000000e+00

-1.242499999999999938e+00

-1.072500000000000009e+00

-9.625000000000000222e-01

-8.824999999999999512e-01

-8.175000000000000044e-01

-7.475000000000000533e-01

-6.824999999999999956e-01

-6.025000000000000355e-01

-5.074999999999999512e-01

-4.025000000000000244e-01

-2.800000000000000266e-01

-1.350000000000000089e-01

5.750000000000000250e-02

2.399999999999999911e-01

4.099999999999999756e-01

5.450000000000000400e-01

6.250000000000000000e-01

6.624999999999999778e-01

6.774999999999999911e-01

6.949999999999999512e-01

7.099999999999999645e-01

7.199999999999999734e-01

7.325000000000000400e-01

7.425000000000000488e-01

7.600000000000000089e-01

7.724999999999999645e-01

7.850000000000000311e-01

7.974999999999999867e-01

8.299999999999999600e-01

8.525000000000000355e-01

8.824999999999999512e-01

9.100000000000000311e-01

9.375000000000000000e-01

9.749999999999999778e-01

1.012499999999999956e+00

1.047500000000000098e+00

1.092500000000000027e+00

1.137499999999999956e+00

1.182500000000000107e+00

1.219999999999999973e+00

1.254999999999999893e+00

1.292499999999999982e+00

1.324999999999999956e+00

1.360000000000000098e+00

1.377499999999999947e+00

1.392500000000000071e+00

1.397499999999999964e+00

1.397499999999999964e+00

1.377499999999999947e+00

1.360000000000000098e+00

1.327499999999999902e+00

1.287500000000000089e+00

1.235000000000000098e+00

1.177499999999999991e+00

1.110000000000000098e+00

1.040000000000000036e+00

9.675000000000000266e-01

8.900000000000000133e-01

8.125000000000000000e-01

7.349999999999999867e-01

6.574999999999999734e-01

5.799999999999999600e-01

5.074999999999999512e-01

4.400000000000000022e-01

3.750000000000000000e-01

3.099999999999999978e-01

2.399999999999999911e-01

1.749999999999999889e-01

1.150000000000000050e-01

5.999999999999999778e-02

2.750000000000000014e-02

-1.750000000000000167e-02

-5.000000000000000278e-02

-8.500000000000000611e-02

-1.150000000000000050e-01

-1.474999999999999922e-01

-1.700000000000000122e-01

-1.900000000000000022e-01

-2.025000000000000133e-01

-2.074999999999999900e-01

-2.149999999999999967e-01

-2.200000000000000011e-01

-2.275000000000000078e-01

-2.325000000000000122e-01

-2.349999999999999867e-01

-2.349999999999999867e-01

-2.349999999999999867e-01

-2.275000000000000078e-01

-2.225000000000000033e-01

-2.200000000000000011e-01

-2.200000000000000011e-01

-2.200000000000000011e-01

-2.200000000000000011e-01

-2.200000000000000011e-01

-2.225000000000000033e-01

-2.200000000000000011e-01

-2.225000000000000033e-01

-2.225000000000000033e-01

-2.225000000000000033e-01

-2.200000000000000011e-01

-2.200000000000000011e-01

-2.200000000000000011e-01

-2.200000000000000011e-01

-2.149999999999999967e-01

-2.200000000000000011e-01

-2.124999999999999944e-01

-2.149999999999999967e-01

-2.200000000000000011e-01

-2.200000000000000011e-01

-2.275000000000000078e-01

-2.275000000000000078e-01

-2.275000000000000078e-01

-2.149999999999999967e-01

-1.950000000000000067e-01

-1.625000000000000056e-01

-1.300000000000000044e-01

-9.249999999999999889e-02

-7.249999999999999500e-02

-6.500000000000000222e-02

-7.000000000000000666e-02

-5.750000000000000250e-02

-5.000000000000000278e-02

-4.000000000000000083e-02

-3.749999999999999861e-02

-2.500000000000000139e-02

-2.500000000000000139e-02

-2.750000000000000014e-02

-3.749999999999999861e-02

-4.000000000000000083e-02

-4.499999999999999833e-02

-3.250000000000000111e-02

-2.000000000000000042e-02

1.250000000000000069e-02

3.250000000000000111e-02

5.750000000000000250e-02

5.750000000000000250e-02

5.000000000000000278e-02

5.249999999999999806e-02

7.749999999999999944e-02

8.500000000000000611e-02

-2.500000000000000139e-02

-2.325000000000000122e-01

-5.274999999999999689e-01

-8.449999999999999734e-01

-1.112500000000000044e+00

-1.300000000000000044e+00

-1.435000000000000053e+00

-1.532499999999999973e+00

-1.617499999999999938e+00

-1.707500000000000018e+00

-1.827499999999999902e+00

-1.969999999999999973e+00

-2.100000000000000089e+00

-2.182500000000000107e+00

-2.197499999999999787e+00

-2.162500000000000089e+00

-2.080000000000000071e+00

-1.942499999999999893e+00

-1.762499999999999956e+00

-1.567499999999999893e+00

-1.364999999999999991e+00

-1.175000000000000044e+00

-1.034999999999999920e+00

-9.425000000000000044e-01

-8.699999999999999956e-01

-8.000000000000000444e-01

-7.199999999999999734e-01

-6.300000000000000044e-01

-5.274999999999999689e-01

-4.174999999999999822e-01

-2.675000000000000155e-01

-8.999999999999999667e-02

1.300000000000000044e-01

3.300000000000000155e-01

4.949999999999999956e-01

6.099999999999999867e-01

6.750000000000000444e-01

7.075000000000000178e-01

7.225000000000000311e-01

7.325000000000000400e-01

7.475000000000000533e-01

7.650000000000000133e-01

7.800000000000000266e-01

7.974999999999999867e-01

8.074999999999999956e-01

8.125000000000000000e-01

8.249999999999999556e-01

8.399999999999999689e-01

8.625000000000000444e-01

8.850000000000000089e-01

9.100000000000000311e-01

9.375000000000000000e-01

9.699999999999999734e-01

1.002499999999999947e+00

1.034999999999999920e+00

1.067499999999999893e+00

1.104999999999999982e+00

1.145000000000000018e+00

1.177499999999999991e+00

1.219999999999999973e+00

1.260000000000000009e+00

1.294999999999999929e+00

1.327499999999999902e+00

1.360000000000000098e+00

1.389999999999999902e+00

1.409999999999999920e+00

1.425000000000000044e+00

1.429999999999999938e+00

1.425000000000000044e+00

1.409999999999999920e+00

1.377499999999999947e+00

1.337499999999999911e+00

1.292499999999999982e+00

1.239999999999999991e+00

1.177499999999999991e+00

1.110000000000000098e+00

1.040000000000000036e+00

9.675000000000000266e-01

8.900000000000000133e-01

8.074999999999999956e-01

7.349999999999999867e-01

6.550000000000000266e-01

5.725000000000000089e-01

4.874999999999999889e-01

4.149999999999999800e-01

3.425000000000000266e-01

2.775000000000000244e-01

2.124999999999999944e-01

1.549999999999999989e-01

1.024999999999999939e-01

5.750000000000000250e-02

1.750000000000000167e-02

-3.749999999999999861e-02

-8.250000000000000389e-02

-1.174999999999999933e-01

-1.549999999999999989e-01

-1.824999999999999956e-01

-2.000000000000000111e-01

-2.124999999999999944e-01

-2.200000000000000011e-01

-2.225000000000000033e-01

-2.225000000000000033e-01

-2.275000000000000078e-01

-2.275000000000000078e-01

-2.325000000000000122e-01

-2.325000000000000122e-01

-2.325000000000000122e-01

-2.225000000000000033e-01

-2.225000000000000033e-01

-2.124999999999999944e-01

-2.074999999999999900e-01

-2.025000000000000133e-01

-2.000000000000000111e-01

-1.950000000000000067e-01

-1.950000000000000067e-01

-1.950000000000000067e-01

-2.000000000000000111e-01

-2.000000000000000111e-01

-2.025000000000000133e-01

-2.025000000000000133e-01

-2.025000000000000133e-01

-2.074999999999999900e-01

-2.074999999999999900e-01

-2.074999999999999900e-01

-2.025000000000000133e-01

-2.025000000000000133e-01

-2.025000000000000133e-01

-2.124999999999999944e-01

-2.149999999999999967e-01

-2.200000000000000011e-01

-2.124999999999999944e-01

-2.025000000000000133e-01

-1.799999999999999933e-01

-1.474999999999999922e-01

-1.024999999999999939e-01

-7.249999999999999500e-02

-5.249999999999999806e-02

-5.000000000000000278e-02

-5.249999999999999806e-02

-5.249999999999999806e-02

-5.000000000000000278e-02

-4.000000000000000083e-02

-3.250000000000000111e-02

-2.500000000000000139e-02

-2.000000000000000042e-02

-2.500000000000000139e-02

-2.750000000000000014e-02

-3.749999999999999861e-02

-3.250000000000000111e-02

-2.750000000000000014e-02

-2.500000000000000139e-02

-2.000000000000000042e-02

-1.750000000000000167e-02

7.499999999999999722e-03

2.000000000000000042e-02

2.750000000000000014e-02

1.750000000000000167e-02

1.250000000000000069e-02

2.750000000000000014e-02

5.000000000000000278e-02

-2.750000000000000014e-02

-2.124999999999999944e-01

-4.924999999999999933e-01

-8.000000000000000444e-01

-1.072500000000000009e+00

-1.267500000000000071e+00

-1.405000000000000027e+00

-1.502499999999999947e+00

-1.587499999999999911e+00

-1.682500000000000107e+00

-1.800000000000000044e+00

-1.937500000000000000e+00

-2.067499999999999893e+00

-2.152499999999999858e+00

-2.182500000000000107e+00

-2.149999999999999911e+00

-2.072499999999999787e+00

-1.955000000000000071e+00

-1.787500000000000089e+00

-1.610000000000000098e+00

-1.405000000000000027e+00

-1.227500000000000036e+00

-1.080000000000000071e+00

-9.949999999999999956e-01

-9.224999999999999867e-01

-8.625000000000000444e-01

-7.850000000000000311e-01

-6.899999999999999467e-01

-5.849999999999999645e-01

-4.625000000000000222e-01

-3.175000000000000044e-01

-1.424999999999999878e-01

7.249999999999999500e-02

2.849999999999999756e-01

4.600000000000000200e-01

5.899999999999999689e-01

6.624999999999999778e-01

6.999999999999999556e-01

7.199999999999999734e-01

7.349999999999999867e-01

7.475000000000000533e-01

7.600000000000000089e-01

7.650000000000000133e-01

7.750000000000000222e-01

7.850000000000000311e-01

8.050000000000000488e-01

8.175000000000000044e-01

8.375000000000000222e-01

8.525000000000000355e-01

8.725000000000000533e-01

8.950000000000000178e-01

9.150000000000000355e-01

9.425000000000000044e-01

9.749999999999999778e-01

1.012499999999999956e+00

1.044999999999999929e+00

1.080000000000000071e+00

1.117499999999999938e+00

1.155000000000000027e+00

1.197500000000000009e+00

1.235000000000000098e+00

1.272499999999999964e+00

1.304999999999999938e+00

1.332500000000000018e+00

1.360000000000000098e+00

1.377499999999999947e+00

1.392500000000000071e+00

1.402500000000000080e+00

1.397499999999999964e+00

1.377499999999999947e+00

1.352500000000000036e+00

1.317499999999999893e+00

1.272499999999999964e+00

1.219999999999999973e+00

1.165000000000000036e+00

1.097499999999999920e+00

1.032499999999999973e+00

9.549999999999999600e-01

8.824999999999999512e-01

8.000000000000000444e-01

7.325000000000000400e-01

6.574999999999999734e-01

5.799999999999999600e-01

5.000000000000000000e-01

4.274999999999999911e-01

3.499999999999999778e-01

2.775000000000000244e-01

2.149999999999999967e-01

1.549999999999999989e-01

9.750000000000000333e-02

4.499999999999999833e-02

5.000000000000000104e-03

-5.000000000000000278e-02

-8.500000000000000611e-02

-1.224999999999999978e-01

-1.549999999999999989e-01

-1.824999999999999956e-01

-2.000000000000000111e-01

-2.149999999999999967e-01

-2.225000000000000033e-01

-2.325000000000000122e-01

-2.449999999999999956e-01

-2.525000000000000022e-01

-2.525000000000000022e-01

-2.525000000000000022e-01

-2.474999999999999978e-01

-2.474999999999999978e-01

-2.449999999999999956e-01

-2.399999999999999911e-01

-2.399999999999999911e-01

-2.399999999999999911e-01

-2.349999999999999867e-01

-2.325000000000000122e-01

-2.275000000000000078e-01

-2.200000000000000011e-01

-2.275000000000000078e-01

-2.275000000000000078e-01

-2.325000000000000122e-01

-2.275000000000000078e-01

-2.325000000000000122e-01

-2.325000000000000122e-01

-2.399999999999999911e-01

-2.449999999999999956e-01

-2.474999999999999978e-01

-2.449999999999999956e-01

-2.525000000000000022e-01

-2.550000000000000044e-01

-2.650000000000000133e-01

-2.650000000000000133e-01

-2.650000000000000133e-01

-2.650000000000000133e-01

-2.600000000000000089e-01

-2.550000000000000044e-01

-2.449999999999999956e-01

-2.149999999999999967e-01

-1.824999999999999956e-01

-1.499999999999999944e-01

-1.250000000000000000e-01

-1.150000000000000050e-01

-1.150000000000000050e-01

-1.150000000000000050e-01

-1.049999999999999961e-01

-1.024999999999999939e-01

-9.750000000000000333e-02

-9.249999999999999889e-02

-8.999999999999999667e-02

-9.249999999999999889e-02

-9.750000000000000333e-02

-1.024999999999999939e-01

-9.750000000000000333e-02

-9.750000000000000333e-02

-8.500000000000000611e-02

-7.749999999999999944e-02

-6.500000000000000222e-02

-5.249999999999999806e-02

-4.000000000000000083e-02

-3.749999999999999861e-02

-5.000000000000000278e-02

-5.249999999999999806e-02

-2.750000000000000014e-02

-4.000000000000000083e-02

-1.675000000000000100e-01

-3.975000000000000200e-01

-7.025000000000000133e-01

-1.007500000000000062e+00

-1.252499999999999947e+00

-1.415000000000000036e+00

-1.534999999999999920e+00

-1.629999999999999893e+00

-1.707500000000000018e+00

-1.792499999999999982e+00

-1.909999999999999920e+00

-2.040000000000000036e+00

-2.157500000000000195e+00

-2.214999999999999858e+00

-2.209999999999999964e+00

-2.152499999999999858e+00

-2.060000000000000053e+00

-1.917499999999999982e+00

-1.754999999999999893e+00

-1.580000000000000071e+00

-1.377499999999999947e+00

-1.195000000000000062e+00

-1.077499999999999902e+00

-9.925000000000000488e-01

-9.274999999999999911e-01

-8.649999999999999911e-01

-7.850000000000000311e-01

-6.949999999999999512e-01

-5.975000000000000311e-01

-4.799999999999999822e-01

-3.325000000000000178e-01

-1.675000000000000100e-01

3.749999999999999861e-02

2.275000000000000078e-01

3.950000000000000178e-01

5.124999999999999556e-01

5.899999999999999689e-01

6.175000000000000488e-01

6.350000000000000089e-01

6.450000000000000178e-01

6.574999999999999734e-01

6.674999999999999822e-01

6.774999999999999911e-01

6.875000000000000000e-01

7.025000000000000133e-01

7.199999999999999734e-01

7.325000000000000400e-01

7.475000000000000533e-01

7.674999999999999600e-01

7.874999999999999778e-01

8.074999999999999956e-01

8.375000000000000222e-01

8.699999999999999956e-01

9.024999999999999689e-01

9.350000000000000533e-01

9.749999999999999778e-01

1.012499999999999956e+00

1.052499999999999991e+00

1.090000000000000080e+00

1.132500000000000062e+00

1.169999999999999929e+00

1.207500000000000018e+00

1.239999999999999991e+00

1.272499999999999964e+00

1.292499999999999982e+00

1.307500000000000107e+00

1.304999999999999938e+00

1.294999999999999929e+00

1.280000000000000027e+00

1.260000000000000009e+00

1.229999999999999982e+00

1.189999999999999947e+00

1.142500000000000071e+00

1.084999999999999964e+00

1.032499999999999973e+00

9.625000000000000222e-01

8.974999999999999645e-01

8.249999999999999556e-01

7.425000000000000488e-01

6.700000000000000400e-01

5.925000000000000266e-01

5.074999999999999512e-01

4.224999999999999867e-01

3.375000000000000222e-01

2.650000000000000133e-01

2.000000000000000111e-01

1.424999999999999878e-01

8.500000000000000611e-02

4.000000000000000083e-02

-1.750000000000000167e-02

-5.999999999999999778e-02

-1.049999999999999961e-01

-1.499999999999999944e-01

-1.900000000000000022e-01

-2.225000000000000033e-01

-2.525000000000000022e-01

-2.800000000000000266e-01

-2.999999999999999889e-01

-3.175000000000000044e-01

-3.200000000000000067e-01

-3.200000000000000067e-01

-3.125000000000000000e-01

-3.175000000000000044e-01

-3.200000000000000067e-01

-3.300000000000000155e-01

-3.300000000000000155e-01

-3.325000000000000178e-01

-3.300000000000000155e-01

-3.325000000000000178e-01

-3.250000000000000111e-01

-3.200000000000000067e-01

-3.175000000000000044e-01

-3.200000000000000067e-01

-3.250000000000000111e-01

-3.300000000000000155e-01

-3.250000000000000111e-01

-3.250000000000000111e-01

-3.250000000000000111e-01

-3.250000000000000111e-01

-3.300000000000000155e-01

-3.375000000000000222e-01

-3.425000000000000266e-01

-3.449999999999999734e-01

-3.449999999999999734e-01

-3.449999999999999734e-01

-3.449999999999999734e-01

-3.425000000000000266e-01

-3.449999999999999734e-01

-3.425000000000000266e-01

-3.449999999999999734e-01

-3.425000000000000266e-01

-3.425000000000000266e-01

-3.300000000000000155e-01

-3.099999999999999978e-01

-2.675000000000000155e-01

-2.349999999999999867e-01

-2.074999999999999900e-01

-1.950000000000000067e-01

-1.875000000000000000e-01

-1.875000000000000000e-01

-1.824999999999999956e-01

-1.824999999999999956e-01

-1.799999999999999933e-01

-1.675000000000000100e-01

-1.549999999999999989e-01

-1.549999999999999989e-01

-1.575000000000000011e-01

-1.575000000000000011e-01

-1.575000000000000011e-01

-1.575000000000000011e-01

-1.549999999999999989e-01

-1.499999999999999944e-01

-1.474999999999999922e-01

-1.250000000000000000e-01

-1.150000000000000050e-01

-1.024999999999999939e-01

-1.100000000000000006e-01

-1.174999999999999933e-01

-1.150000000000000050e-01

-7.749999999999999944e-02

-8.999999999999999667e-02

-2.149999999999999967e-01

-4.625000000000000222e-01

-7.800000000000000266e-01

-1.092500000000000027e+00

-1.357499999999999929e+00

-1.534999999999999920e+00

-1.662500000000000089e+00

-1.754999999999999893e+00

-1.827499999999999902e+00

-1.917499999999999982e+00

-2.040000000000000036e+00

-2.157500000000000195e+00

-2.250000000000000000e+00

-2.279999999999999805e+00

-2.234999999999999876e+00

-2.140000000000000124e+00

-2.015000000000000124e+00

-1.860000000000000098e+00

-1.685000000000000053e+00

-1.487500000000000044e+00

-1.292499999999999982e+00

-1.125000000000000000e+00

-1.012499999999999956e+00

-9.274999999999999911e-01

-8.649999999999999911e-01

-7.974999999999999867e-01

-7.149999999999999689e-01

-6.250000000000000000e-01

-5.324999999999999734e-01

-4.299999999999999933e-01

-3.175000000000000044e-01

-1.799999999999999933e-01

0.000000000000000000e+00

1.799999999999999933e-01

3.449999999999999734e-01

4.799999999999999822e-01

5.699999999999999512e-01

6.099999999999999867e-01

6.300000000000000044e-01

6.450000000000000178e-01

6.574999999999999734e-01

6.700000000000000400e-01

6.774999999999999911e-01

6.875000000000000000e-01

7.025000000000000133e-01

7.225000000000000311e-01

7.425000000000000488e-01

7.600000000000000089e-01

7.750000000000000222e-01

7.924999999999999822e-01

8.175000000000000044e-01

8.449999999999999734e-01

8.824999999999999512e-01

9.174999999999999822e-01

9.499999999999999556e-01

9.875000000000000444e-01

1.024999999999999911e+00

1.060000000000000053e+00

1.104999999999999982e+00

1.145000000000000018e+00

1.177499999999999991e+00

1.215000000000000080e+00

1.242499999999999938e+00

1.267500000000000071e+00

1.284999999999999920e+00

1.294999999999999929e+00

1.294999999999999929e+00

1.292499999999999982e+00

1.267500000000000071e+00

1.239999999999999991e+00

1.202499999999999902e+00

1.169999999999999929e+00

1.129999999999999893e+00

1.072500000000000009e+00

1.012499999999999956e+00

9.300000000000000488e-01

8.525000000000000355e-01

7.850000000000000311e-01

7.025000000000000133e-01

6.300000000000000044e-01

5.574999999999999956e-01

4.824999999999999845e-01

4.174999999999999822e-01

3.574999999999999845e-01

2.924999999999999822e-01

2.275000000000000078e-01

1.675000000000000100e-01

1.150000000000000050e-01

5.750000000000000250e-02

7.499999999999999722e-03

-4.499999999999999833e-02

-7.749999999999999944e-02

-1.024999999999999939e-01

-1.375000000000000111e-01

-1.625000000000000056e-01

-1.950000000000000067e-01

-2.124999999999999944e-01

-2.325000000000000122e-01

-2.399999999999999911e-01

-2.550000000000000044e-01

-2.600000000000000089e-01

-2.675000000000000155e-01

-2.675000000000000155e-01

-2.650000000000000133e-01

-2.600000000000000089e-01

-2.650000000000000133e-01

-2.675000000000000155e-01

-2.675000000000000155e-01

-2.675000000000000155e-01

-2.650000000000000133e-01

-2.600000000000000089e-01

-2.550000000000000044e-01

-2.600000000000000089e-01

-2.600000000000000089e-01

-2.675000000000000155e-01

-2.675000000000000155e-01

-2.675000000000000155e-01

-2.675000000000000155e-01

-2.725000000000000200e-01

-2.675000000000000155e-01

-2.675000000000000155e-01

-2.675000000000000155e-01

-2.675000000000000155e-01

-2.675000000000000155e-01

-2.650000000000000133e-01

-2.600000000000000089e-01

-2.675000000000000155e-01

-2.725000000000000200e-01

-2.775000000000000244e-01

-2.800000000000000266e-01

-2.650000000000000133e-01

-2.399999999999999911e-01

-2.124999999999999944e-01

-1.749999999999999889e-01

-1.474999999999999922e-01

-1.300000000000000044e-01

-1.224999999999999978e-01

-1.150000000000000050e-01

-1.100000000000000006e-01

-1.049999999999999961e-01

-9.750000000000000333e-02

-8.500000000000000611e-02

-7.749999999999999944e-02

-7.249999999999999500e-02

-7.000000000000000666e-02

-8.250000000000000389e-02

-8.500000000000000611e-02

-8.500000000000000611e-02

-8.250000000000000389e-02

-8.500000000000000611e-02

-8.500000000000000611e-02

-8.500000000000000611e-02

-7.249999999999999500e-02

-5.999999999999999778e-02

-4.000000000000000083e-02

-3.749999999999999861e-02

-3.749999999999999861e-02

-2.750000000000000014e-02

1.250000000000000069e-02

6.500000000000000222e-02

5.249999999999999806e-02

-9.750000000000000333e-02

-3.499999999999999778e-01

-6.750000000000000444e-01

-9.949999999999999956e-01

-1.242499999999999938e+00

-1.417499999999999982e+00

-1.540000000000000036e+00

-1.637499999999999956e+00

-1.722499999999999920e+00

-1.827499999999999902e+00

-1.949999999999999956e+00

-2.084999999999999964e+00

-2.172499999999999876e+00

-2.209999999999999964e+00

-2.182500000000000107e+00

-2.112499999999999822e+00

-2.000000000000000000e+00

-1.837499999999999911e+00

-1.642500000000000071e+00

-1.437500000000000000e+00

-1.239999999999999991e+00

-1.072500000000000009e+00

-9.625000000000000222e-01

-8.824999999999999512e-01

-8.199999999999999512e-01

-7.475000000000000533e-01

-6.674999999999999822e-01

-5.725000000000000089e-01

-4.724999999999999756e-01

-3.624999999999999889e-01

-2.225000000000000033e-01

-5.750000000000000250e-02

1.474999999999999922e-01

3.325000000000000178e-01

4.874999999999999889e-01

6.025000000000000355e-01

6.574999999999999734e-01

6.949999999999999512e-01

7.149999999999999689e-01

7.349999999999999867e-01

7.475000000000000533e-01

7.650000000000000133e-01

7.750000000000000222e-01

7.874999999999999778e-01

7.974999999999999867e-01

8.125000000000000000e-01

8.249999999999999556e-01

8.449999999999999734e-01

8.625000000000000444e-01

8.824999999999999512e-01

9.100000000000000311e-01

9.350000000000000533e-01

9.675000000000000266e-01

1.000000000000000000e+00

1.034999999999999920e+00

1.067499999999999893e+00

1.110000000000000098e+00

1.142500000000000071e+00

1.187500000000000000e+00

1.227500000000000036e+00

1.262499999999999956e+00

1.300000000000000044e+00

1.327499999999999902e+00

1.357499999999999929e+00

1.377499999999999947e+00

1.389999999999999902e+00

1.389999999999999902e+00

1.377499999999999947e+00

1.364999999999999991e+00

1.344999999999999973e+00

1.317499999999999893e+00

1.284999999999999920e+00

1.235000000000000098e+00

1.177499999999999991e+00

1.110000000000000098e+00

1.034999999999999920e+00

9.675000000000000266e-01

8.900000000000000133e-01

8.074999999999999956e-01

7.325000000000000400e-01

6.450000000000000178e-01

5.699999999999999512e-01

4.924999999999999933e-01

4.299999999999999933e-01

3.624999999999999889e-01

2.999999999999999889e-01

2.325000000000000122e-01

1.799999999999999933e-01

1.224999999999999978e-01

7.249999999999999500e-02

2.750000000000000014e-02

-1.750000000000000167e-02

-5.750000000000000250e-02

-9.249999999999999889e-02

-1.250000000000000000e-01

-1.549999999999999989e-01

-1.749999999999999889e-01

-1.950000000000000067e-01

-2.124999999999999944e-01

-2.225000000000000033e-01

-2.275000000000000078e-01

-2.275000000000000078e-01

-2.275000000000000078e-01

-2.275000000000000078e-01

-2.225000000000000033e-01

-2.275000000000000078e-01

-2.275000000000000078e-01

-2.275000000000000078e-01

-2.200000000000000011e-01

-2.200000000000000011e-01

-2.149999999999999967e-01

-2.149999999999999967e-01

-2.149999999999999967e-01

-2.149999999999999967e-01

-2.124999999999999944e-01

-2.124999999999999944e-01

-2.124999999999999944e-01

-2.149999999999999967e-01

-2.149999999999999967e-01

-2.200000000000000011e-01

-2.200000000000000011e-01

-2.200000000000000011e-01

-2.200000000000000011e-01

-2.225000000000000033e-01

-2.275000000000000078e-01

-2.225000000000000033e-01

-2.225000000000000033e-01

-2.275000000000000078e-01

-2.275000000000000078e-01

-2.200000000000000011e-01

-2.124999999999999944e-01

-1.875000000000000000e-01

-1.549999999999999989e-01

-1.174999999999999933e-01

-8.999999999999999667e-02

-7.249999999999999500e-02

-7.249999999999999500e-02

-8.250000000000000389e-02

-8.500000000000000611e-02

-7.749999999999999944e-02

-7.249999999999999500e-02

-5.750000000000000250e-02

-4.499999999999999833e-02

-4.000000000000000083e-02

-4.499999999999999833e-02

-5.750000000000000250e-02

-5.999999999999999778e-02

-5.999999999999999778e-02

-5.750000000000000250e-02

-5.750000000000000250e-02

-5.249999999999999806e-02

-5.000000000000000278e-02

-2.750000000000000014e-02

0.000000000000000000e+00

1.750000000000000167e-02

7.499999999999999722e-03

0.000000000000000000e+00

7.499999999999999722e-03

5.750000000000000250e-02

6.500000000000000222e-02

-5.249999999999999806e-02

-2.800000000000000266e-01

-5.799999999999999600e-01

-8.950000000000000178e-01

-1.145000000000000018e+00

-1.327499999999999902e+00

-1.455000000000000071e+00

-1.547500000000000098e+00

-1.637499999999999956e+00

-1.742499999999999938e+00

-1.877499999999999947e+00

-2.015000000000000124e+00

-2.125000000000000000e+00

-2.182500000000000107e+00

-2.182500000000000107e+00

-2.125000000000000000e+00

-2.035000000000000142e+00

-1.897499999999999964e+00

-1.727500000000000036e+00

-1.514999999999999902e+00

-1.332500000000000018e+00

-1.169999999999999929e+00

-1.044999999999999929e+00

-9.549999999999999600e-01

-8.900000000000000133e-01

-8.175000000000000044e-01

-7.349999999999999867e-01

-6.350000000000000089e-01

-5.250000000000000222e-01

-4.074999999999999734e-01

-2.600000000000000089e-01

-8.500000000000000611e-02

1.300000000000000044e-01

3.325000000000000178e-01

4.949999999999999956e-01

6.049999999999999822e-01

6.700000000000000400e-01

7.075000000000000178e-01

7.275000000000000355e-01

7.425000000000000488e-01

7.600000000000000089e-01

7.724999999999999645e-01

7.750000000000000222e-01

7.850000000000000311e-01

7.974999999999999867e-01

8.074999999999999956e-01

8.299999999999999600e-01

8.499999999999999778e-01

8.774999999999999467e-01

8.950000000000000178e-01

9.224999999999999867e-01

9.475000000000000089e-01

9.749999999999999778e-01

1.002499999999999947e+00

1.034999999999999920e+00

1.064999999999999947e+00

1.100000000000000089e+00

1.142500000000000071e+00

1.182500000000000107e+00

1.222499999999999920e+00

1.260000000000000009e+00

1.300000000000000044e+00

1.332500000000000018e+00

1.360000000000000098e+00

1.382500000000000062e+00

1.397499999999999964e+00

1.405000000000000027e+00

1.409999999999999920e+00

1.402500000000000080e+00

1.385000000000000009e+00

1.360000000000000098e+00

1.327499999999999902e+00

1.280000000000000027e+00

1.222499999999999920e+00

1.162500000000000089e+00

1.090000000000000080e+00

1.020000000000000018e+00

9.375000000000000000e-01

8.625000000000000444e-01

7.800000000000000266e-01

7.025000000000000133e-01

6.350000000000000089e-01

5.574999999999999956e-01

4.824999999999999845e-01

4.074999999999999734e-01

3.375000000000000222e-01

2.675000000000000155e-01

2.074999999999999900e-01

1.474999999999999922e-01

8.999999999999999667e-02

4.000000000000000083e-02

0.000000000000000000e+00

-5.000000000000000278e-02

-7.749999999999999944e-02

-1.049999999999999961e-01

-1.300000000000000044e-01

-1.499999999999999944e-01

-1.700000000000000122e-01

-1.824999999999999956e-01

-1.950000000000000067e-01

-1.950000000000000067e-01

-2.025000000000000133e-01

-2.025000000000000133e-01

-2.074999999999999900e-01

-2.074999999999999900e-01

-2.124999999999999944e-01

-2.124999999999999944e-01

-2.074999999999999900e-01

-2.074999999999999900e-01

-2.124999999999999944e-01

-2.124999999999999944e-01

-2.124999999999999944e-01

-2.074999999999999900e-01

-2.025000000000000133e-01

-2.025000000000000133e-01

-1.950000000000000067e-01

-1.950000000000000067e-01

-2.000000000000000111e-01

-2.025000000000000133e-01

-2.025000000000000133e-01

-2.124999999999999944e-01

-2.200000000000000011e-01

-2.275000000000000078e-01

-2.275000000000000078e-01

-2.325000000000000122e-01

-2.325000000000000122e-01

-2.325000000000000122e-01

-2.325000000000000122e-01

-2.275000000000000078e-01

-2.325000000000000122e-01

-2.349999999999999867e-01

-2.399999999999999911e-01

-2.349999999999999867e-01

-2.275000000000000078e-01

-2.025000000000000133e-01

-1.749999999999999889e-01

-1.375000000000000111e-01

-1.024999999999999939e-01

-8.250000000000000389e-02

-7.249999999999999500e-02

-7.000000000000000666e-02

-7.000000000000000666e-02

-6.500000000000000222e-02

-6.500000000000000222e-02

-5.249999999999999806e-02

-5.000000000000000278e-02

-4.000000000000000083e-02

-4.499999999999999833e-02

-5.249999999999999806e-02

-5.999999999999999778e-02

-5.750000000000000250e-02

-4.000000000000000083e-02

-1.750000000000000167e-02

1.250000000000000069e-02

3.250000000000000111e-02

4.499999999999999833e-02

4.000000000000000083e-02

3.250000000000000111e-02

3.749999999999999861e-02

5.999999999999999778e-02

2.750000000000000014e-02

-1.174999999999999933e-01

-3.574999999999999845e-01

-6.624999999999999778e-01

-9.625000000000000222e-01

-1.182500000000000107e+00

-1.344999999999999973e+00

-1.462499999999999911e+00

-1.554999999999999938e+00

-1.637499999999999956e+00

-1.747500000000000053e+00

-1.864999999999999991e+00

-2.000000000000000000e+00

-2.097500000000000142e+00

-2.145000000000000018e+00

-2.132499999999999840e+00

-2.080000000000000071e+00

-1.982499999999999929e+00

-1.840000000000000080e+00

-1.665000000000000036e+00

-1.479999999999999982e+00

-1.294999999999999929e+00

-1.132500000000000062e+00

-1.024999999999999911e+00

-9.475000000000000089e-01

-8.850000000000000089e-01

-8.199999999999999512e-01

-7.425000000000000488e-01

-6.450000000000000178e-01

-5.374999999999999778e-01

-4.074999999999999734e-01

-2.449999999999999956e-01

-4.000000000000000083e-02

1.875000000000000000e-01

3.850000000000000089e-01

5.374999999999999778e-01

6.350000000000000089e-01

6.774999999999999911e-01

7.025000000000000133e-01

7.099999999999999645e-01

7.225000000000000311e-01

7.325000000000000400e-01

7.425000000000000488e-01

7.550000000000000044e-01

7.724999999999999645e-01

7.800000000000000266e-01

7.974999999999999867e-01

8.175000000000000044e-01

8.375000000000000222e-01

8.625000000000000444e-01

8.774999999999999467e-01

9.050000000000000266e-01

9.300000000000000488e-01

9.599999999999999645e-01

9.799999999999999822e-01

1.012499999999999956e+00

1.034999999999999920e+00

1.072500000000000009e+00

1.112500000000000044e+00

1.149999999999999911e+00

1.187500000000000000e+00

1.227500000000000036e+00

1.262499999999999956e+00

1.294999999999999929e+00

1.320000000000000062e+00

1.344999999999999973e+00

1.360000000000000098e+00

1.372500000000000053e+00

1.372500000000000053e+00

1.360000000000000098e+00

1.340000000000000080e+00

1.312500000000000000e+00

1.274999999999999911e+00

1.235000000000000098e+00

1.187500000000000000e+00

1.129999999999999893e+00

1.057500000000000107e+00

9.825000000000000400e-01

8.974999999999999645e-01

8.175000000000000044e-01

7.399999999999999911e-01

6.550000000000000266e-01

5.775000000000000133e-01

4.949999999999999956e-01

4.274999999999999911e-01

3.524999999999999800e-01

2.849999999999999756e-01

2.225000000000000033e-01

1.625000000000000056e-01

1.150000000000000050e-01

7.000000000000000666e-02

2.000000000000000042e-02

-3.250000000000000111e-02

-7.249999999999999500e-02

-1.150000000000000050e-01

-1.424999999999999878e-01

-1.700000000000000122e-01

-2.000000000000000111e-01

-2.200000000000000011e-01

-2.349999999999999867e-01

-2.474999999999999978e-01

-2.525000000000000022e-01

-2.550000000000000044e-01

-2.600000000000000089e-01

-2.600000000000000089e-01

-2.550000000000000044e-01

-2.550000000000000044e-01

-2.525000000000000022e-01

-2.474999999999999978e-01

-2.349999999999999867e-01

-2.325000000000000122e-01

-2.349999999999999867e-01

-2.399999999999999911e-01

-2.474999999999999978e-01

-2.474999999999999978e-01

-2.550000000000000044e-01

-2.600000000000000089e-01

-2.650000000000000133e-01

-2.650000000000000133e-01

-2.650000000000000133e-01

-2.650000000000000133e-01

-2.650000000000000133e-01

-2.600000000000000089e-01

-2.650000000000000133e-01

-2.675000000000000155e-01

-2.725000000000000200e-01

-2.725000000000000200e-01

-2.775000000000000244e-01

-2.800000000000000266e-01

-2.874999999999999778e-01

-2.924999999999999822e-01

-2.999999999999999889e-01

-2.999999999999999889e-01

-2.999999999999999889e-01

-2.924999999999999822e-01

-2.924999999999999822e-01

-2.849999999999999756e-01

-2.675000000000000155e-01

-2.449999999999999956e-01

-2.074999999999999900e-01

-1.749999999999999889e-01

-1.499999999999999944e-01

-1.424999999999999878e-01

-1.375000000000000111e-01

-1.375000000000000111e-01

-1.350000000000000089e-01

-1.350000000000000089e-01

-1.250000000000000000e-01

-1.174999999999999933e-01

-1.024999999999999939e-01

-8.999999999999999667e-02

-7.249999999999999500e-02

-7.000000000000000666e-02

-5.000000000000000278e-02

-2.750000000000000014e-02

5.000000000000000104e-03

7.499999999999999722e-03

-1.750000000000000167e-02

-3.749999999999999861e-02

-2.750000000000000014e-02

0.000000000000000000e+00

-5.999999999999999778e-02

-2.399999999999999911e-01

-5.124999999999999556e-01

-8.299999999999999600e-01

-1.112500000000000044e+00

-1.332500000000000018e+00

-1.482499999999999929e+00

-1.587499999999999911e+00

-1.669999999999999929e+00

-1.747500000000000053e+00

-1.847499999999999920e+00

-1.977500000000000036e+00

-2.097500000000000142e+00

-2.172499999999999876e+00

-2.177500000000000213e+00

-2.117500000000000160e+00

-2.027499999999999858e+00

-1.902500000000000080e+00

-1.742499999999999938e+00

-1.560000000000000053e+00

-1.364999999999999991e+00

-1.182500000000000107e+00

-1.040000000000000036e+00

-9.375000000000000000e-01

-8.774999999999999467e-01

-8.175000000000000044e-01

-7.600000000000000089e-01

-6.899999999999999467e-01

-6.125000000000000444e-01

-5.124999999999999556e-01

-3.900000000000000133e-01

-2.525000000000000022e-01

-8.250000000000000389e-02

1.150000000000000050e-01

2.874999999999999778e-01

4.400000000000000022e-01

5.450000000000000400e-01

6.099999999999999867e-01

6.424999999999999600e-01

6.574999999999999734e-01

6.774999999999999911e-01

6.824999999999999956e-01

6.875000000000000000e-01

6.949999999999999512e-01

7.199999999999999734e-01

7.399999999999999911e-01

7.650000000000000133e-01

7.724999999999999645e-01

7.800000000000000266e-01

7.874999999999999778e-01

8.074999999999999956e-01

8.375000000000000222e-01

8.699999999999999956e-01

9.050000000000000266e-01

9.475000000000000089e-01

9.875000000000000444e-01

1.034999999999999920e+00

1.077499999999999902e+00

1.122500000000000053e+00

1.155000000000000027e+00

1.189999999999999947e+00

1.222499999999999920e+00

1.252499999999999947e+00

1.280000000000000027e+00

1.300000000000000044e+00

1.324999999999999956e+00

1.337499999999999911e+00

1.340000000000000080e+00

1.327499999999999902e+00

1.317499999999999893e+00

1.292499999999999982e+00

1.260000000000000009e+00

1.215000000000000080e+00

1.165000000000000036e+00

1.097499999999999920e+00

1.034999999999999920e+00

9.675000000000000266e-01

9.024999999999999689e-01

8.249999999999999556e-01

7.425000000000000488e-01

6.574999999999999734e-01

5.725000000000000089e-01

5.000000000000000000e-01

4.299999999999999933e-01

3.649999999999999911e-01

2.924999999999999822e-01

2.325000000000000122e-01

1.700000000000000122e-01

1.150000000000000050e-01

5.999999999999999778e-02

2.500000000000000139e-02

-2.750000000000000014e-02

-6.500000000000000222e-02

-9.750000000000000333e-02

-1.300000000000000044e-01

-1.625000000000000056e-01

-1.900000000000000022e-01

-2.149999999999999967e-01

-2.325000000000000122e-01

-2.449999999999999956e-01

-2.474999999999999978e-01

-2.550000000000000044e-01

-2.600000000000000089e-01

-2.600000000000000089e-01

-2.650000000000000133e-01

-2.675000000000000155e-01

-2.675000000000000155e-01

-2.600000000000000089e-01

-2.650000000000000133e-01

-2.675000000000000155e-01

-2.725000000000000200e-01

-2.775000000000000244e-01

-2.775000000000000244e-01

-2.725000000000000200e-01

-2.725000000000000200e-01

-2.650000000000000133e-01

-2.600000000000000089e-01

-2.550000000000000044e-01

-2.550000000000000044e-01

-2.525000000000000022e-01

-2.550000000000000044e-01

-2.600000000000000089e-01

-2.775000000000000244e-01

-2.849999999999999756e-01

-2.924999999999999822e-01

-2.849999999999999756e-01

-2.800000000000000266e-01

-2.775000000000000244e-01

-2.775000000000000244e-01

-2.775000000000000244e-01

-2.775000000000000244e-01

-2.800000000000000266e-01

-2.775000000000000244e-01

-2.775000000000000244e-01

-2.775000000000000244e-01

-2.725000000000000200e-01

-2.775000000000000244e-01

-2.725000000000000200e-01

-2.650000000000000133e-01

-2.449999999999999956e-01

-2.025000000000000133e-01

-1.625000000000000056e-01

-1.300000000000000044e-01

-1.150000000000000050e-01

-1.049999999999999961e-01

-1.174999999999999933e-01

-1.174999999999999933e-01

-1.174999999999999933e-01

-1.024999999999999939e-01

-8.500000000000000611e-02

-5.750000000000000250e-02

-5.000000000000000278e-02

-3.749999999999999861e-02

-2.750000000000000014e-02

0.000000000000000000e+00

3.250000000000000111e-02

7.000000000000000666e-02

8.500000000000000611e-02

8.250000000000000389e-02

9.750000000000000333e-02

1.224999999999999978e-01

7.249999999999999500e-02

-1.049999999999999961e-01

-3.850000000000000089e-01

-7.650000000000000133e-01

-1.057500000000000107e+00

-1.280000000000000027e+00

-1.449999999999999956e+00

-1.577499999999999902e+00

-1.675000000000000044e+00

-1.754999999999999893e+00

-1.852500000000000036e+00

-1.969999999999999973e+00

-2.084999999999999964e+00

-2.162500000000000089e+00

-2.165000000000000036e+00

-2.104999999999999982e+00

-2.007499999999999840e+00

-1.864999999999999991e+00

-1.685000000000000053e+00

-1.495000000000000107e+00

-1.300000000000000044e+00

-1.112500000000000044e+00

-9.699999999999999734e-01

-8.725000000000000533e-01

-8.175000000000000044e-01

-7.650000000000000133e-01

-6.999999999999999556e-01

-6.225000000000000533e-01

-5.374999999999999778e-01

-4.299999999999999933e-01

-3.250000000000000111e-01

-2.025000000000000133e-01

-5.750000000000000250e-02

1.300000000000000044e-01

3.125000000000000000e-01

4.724999999999999756e-01

5.799999999999999600e-01

6.450000000000000178e-01

6.774999999999999911e-01

7.075000000000000178e-01

7.275000000000000355e-01

7.425000000000000488e-01

7.550000000000000044e-01

7.724999999999999645e-01

7.800000000000000266e-01

7.974999999999999867e-01

8.074999999999999956e-01

8.199999999999999512e-01

8.375000000000000222e-01

8.625000000000000444e-01

8.950000000000000178e-01

9.300000000000000488e-01

9.625000000000000222e-01

9.925000000000000488e-01

1.024999999999999911e+00

1.052499999999999991e+00

1.090000000000000080e+00

1.129999999999999893e+00

1.175000000000000044e+00

1.219999999999999973e+00

1.262499999999999956e+00

1.307500000000000107e+00

1.352500000000000036e+00

1.385000000000000009e+00

1.405000000000000027e+00

1.417499999999999982e+00

1.425000000000000044e+00

1.429999999999999938e+00

1.422500000000000098e+00

1.402500000000000080e+00

1.370000000000000107e+00

1.332500000000000018e+00

1.284999999999999920e+00

1.219999999999999973e+00

1.145000000000000018e+00

1.080000000000000071e+00

1.014999999999999902e+00

9.499999999999999556e-01

8.774999999999999467e-01

8.050000000000000488e-01

7.225000000000000311e-01

6.500000000000000222e-01

5.775000000000000133e-01

5.124999999999999556e-01

4.400000000000000022e-01

3.750000000000000000e-01

3.049999999999999933e-01

2.449999999999999956e-01

1.875000000000000000e-01

1.375000000000000111e-01

8.999999999999999667e-02

5.000000000000000278e-02

1.250000000000000069e-02

-2.750000000000000014e-02

-5.750000000000000250e-02

-8.500000000000000611e-02

-1.100000000000000006e-01

-1.300000000000000044e-01

-1.499999999999999944e-01

-1.575000000000000011e-01

-1.575000000000000011e-01

-1.575000000000000011e-01

-1.625000000000000056e-01

-1.749999999999999889e-01

-1.799999999999999933e-01

-1.824999999999999956e-01

-1.824999999999999956e-01

-1.824999999999999956e-01

-1.799999999999999933e-01

-1.824999999999999956e-01

-1.875000000000000000e-01

-1.875000000000000000e-01

-1.824999999999999956e-01

-1.799999999999999933e-01

-1.749999999999999889e-01

-1.799999999999999933e-01

-1.799999999999999933e-01

-1.799999999999999933e-01

-1.749999999999999889e-01

-1.675000000000000100e-01

-1.675000000000000100e-01

-1.675000000000000100e-01

-1.749999999999999889e-01

-1.824999999999999956e-01

-1.875000000000000000e-01

-1.824999999999999956e-01

-1.875000000000000000e-01

-1.875000000000000000e-01

-1.824999999999999956e-01

-1.799999999999999933e-01

-1.799999999999999933e-01

-1.824999999999999956e-01

-1.875000000000000000e-01

-1.824999999999999956e-01

-1.824999999999999956e-01

-1.824999999999999956e-01

