1.724999999999999867e-01

2.124999999999999944e-01

2.650000000000000133e-01

3.375000000000000222e-01

4.650000000000000244e-01

6.574999999999999734e-01

9.100000000000000311e-01

1.197500000000000009e+00

1.439999999999999947e+00

1.610000000000000098e+00

1.760000000000000009e+00

1.967500000000000027e+00

2.180000000000000160e+00

2.272499999999999964e+00

2.134999999999999787e+00

1.757500000000000062e+00

1.225000000000000089e+00

6.875000000000000000e-01

2.474999999999999978e-01

-4.750000000000000056e-02

-2.000000000000000111e-01

-2.474999999999999978e-01

-2.374999999999999889e-01

-2.099999999999999922e-01

-1.849999999999999978e-01

-1.724999999999999867e-01

-1.549999999999999989e-01

-1.524999999999999967e-01

-1.549999999999999989e-01

-1.575000000000000011e-01

-1.549999999999999989e-01

-1.524999999999999967e-01

-1.524999999999999967e-01

-1.474999999999999922e-01

-1.449999999999999900e-01

-1.375000000000000111e-01

-1.300000000000000044e-01

-1.300000000000000044e-01

-1.250000000000000000e-01

-1.174999999999999933e-01

-1.125000000000000028e-01

-1.100000000000000006e-01

-1.100000000000000006e-01

-1.074999999999999983e-01

-1.024999999999999939e-01

-1.000000000000000056e-01

-9.750000000000000333e-02

-9.750000000000000333e-02

-9.750000000000000333e-02

-8.999999999999999667e-02

-8.500000000000000611e-02

-7.249999999999999500e-02

-6.250000000000000000e-02

-4.750000000000000056e-02

-4.250000000000000305e-02

-2.999999999999999889e-02

-2.750000000000000014e-02

-1.750000000000000167e-02

0.000000000000000000e+00

1.000000000000000021e-02

2.000000000000000042e-02

2.750000000000000014e-02

4.250000000000000305e-02

5.750000000000000250e-02

7.499999999999999722e-02

9.750000000000000333e-02

1.174999999999999933e-01

1.350000000000000089e-01

1.524999999999999967e-01

1.675000000000000100e-01

1.849999999999999978e-01

2.000000000000000111e-01

2.124999999999999944e-01

2.200000000000000011e-01

2.300000000000000100e-01

2.374999999999999889e-01

2.399999999999999911e-01

2.449999999999999956e-01

2.474999999999999978e-01

2.550000000000000044e-01

2.625000000000000111e-01

2.625000000000000111e-01

2.650000000000000133e-01

2.675000000000000155e-01

2.675000000000000155e-01

2.675000000000000155e-01

2.675000000000000155e-01

2.675000000000000155e-01

2.650000000000000133e-01

2.625000000000000111e-01

2.625000000000000111e-01

2.625000000000000111e-01

2.650000000000000133e-01

2.625000000000000111e-01

2.650000000000000133e-01

2.650000000000000133e-01

2.675000000000000155e-01

2.675000000000000155e-01

2.675000000000000155e-01

2.675000000000000155e-01

2.650000000000000133e-01

2.625000000000000111e-01

2.575000000000000067e-01

2.550000000000000044e-01

2.500000000000000000e-01

2.575000000000000067e-01

2.575000000000000067e-01

2.625000000000000111e-01

2.675000000000000155e-01

2.775000000000000244e-01

2.999999999999999889e-01

3.225000000000000089e-01

3.449999999999999734e-01

3.649999999999999911e-01

3.825000000000000067e-01

3.950000000000000178e-01

4.050000000000000266e-01

4.099999999999999756e-01

4.149999999999999800e-01

4.324999999999999956e-01

4.600000000000000200e-01

4.924999999999999933e-01

5.200000000000000178e-01

5.324999999999999734e-01

5.374999999999999778e-01

5.200000000000000178e-01

4.974999999999999978e-01

4.650000000000000244e-01

4.299999999999999933e-01

4.099999999999999756e-01

3.950000000000000178e-01

3.775000000000000022e-01

3.474999999999999756e-01

3.049999999999999933e-01

2.675000000000000155e-01

2.449999999999999956e-01

2.374999999999999889e-01

2.349999999999999867e-01

2.349999999999999867e-01

2.349999999999999867e-01

2.349999999999999867e-01

2.349999999999999867e-01

2.349999999999999867e-01

2.374999999999999889e-01

2.399999999999999911e-01

2.399999999999999911e-01

2.474999999999999978e-01

2.474999999999999978e-01

2.550000000000000044e-01

2.500000000000000000e-01

2.449999999999999956e-01

2.349999999999999867e-01

2.174999999999999989e-01

2.025000000000000133e-01

2.124999999999999944e-01

2.550000000000000044e-01

3.125000000000000000e-01

4.000000000000000222e-01

5.424999999999999822e-01

7.449999999999999956e-01

1.010000000000000009e+00

1.300000000000000044e+00

1.527500000000000080e+00

1.692499999999999893e+00

1.862500000000000044e+00

2.080000000000000071e+00

2.262500000000000178e+00

2.282500000000000195e+00

2.062500000000000000e+00

1.625000000000000000e+00

1.070000000000000062e+00

5.524999999999999911e-01

1.625000000000000056e-01

-9.750000000000000333e-02

-2.074999999999999900e-01

-2.275000000000000078e-01

-2.074999999999999900e-01

-1.799999999999999933e-01

-1.625000000000000056e-01

-1.524999999999999967e-01

-1.375000000000000111e-01

-1.375000000000000111e-01

-1.375000000000000111e-01

-1.375000000000000111e-01

-1.300000000000000044e-01

-1.275000000000000022e-01

-1.250000000000000000e-01

-1.199999999999999956e-01

-1.174999999999999933e-01

-1.174999999999999933e-01

-1.100000000000000006e-01

-1.100000000000000006e-01

-1.074999999999999983e-01

-1.000000000000000056e-01

-9.249999999999999889e-02

-9.249999999999999889e-02

-8.999999999999999667e-02

-8.500000000000000611e-02

-8.999999999999999667e-02

-8.500000000000000611e-02

-8.250000000000000389e-02

-8.000000000000000167e-02

-8.000000000000000167e-02

-7.249999999999999500e-02

-6.250000000000000000e-02

-5.500000000000000028e-02

-4.750000000000000056e-02

-4.250000000000000305e-02

-3.749999999999999861e-02

-2.750000000000000014e-02

-2.000000000000000042e-02

2.500000000000000052e-03

1.750000000000000167e-02

3.749999999999999861e-02

5.249999999999999806e-02

6.500000000000000222e-02

7.499999999999999722e-02

8.999999999999999667e-02

1.074999999999999983e-01

1.250000000000000000e-01

1.449999999999999900e-01

1.625000000000000056e-01

1.799999999999999933e-01

1.900000000000000022e-01

2.000000000000000111e-01

2.099999999999999922e-01

2.275000000000000078e-01

2.399999999999999911e-01

2.550000000000000044e-01

2.625000000000000111e-01

2.675000000000000155e-01

2.725000000000000200e-01

2.775000000000000244e-01

2.849999999999999756e-01

2.899999999999999800e-01

2.924999999999999822e-01

2.949999999999999845e-01

2.949999999999999845e-01

2.999999999999999889e-01

2.999999999999999889e-01

3.024999999999999911e-01

3.024999999999999911e-01

2.999999999999999889e-01

2.949999999999999845e-01

2.924999999999999822e-01

2.824999999999999734e-01

2.725000000000000200e-01

2.675000000000000155e-01

2.650000000000000133e-01

2.675000000000000155e-01

2.725000000000000200e-01

2.750000000000000222e-01

2.750000000000000222e-01

2.750000000000000222e-01

2.775000000000000244e-01

2.775000000000000244e-01

2.824999999999999734e-01

2.824999999999999734e-01

2.775000000000000244e-01

2.775000000000000244e-01

2.775000000000000244e-01

2.849999999999999756e-01

2.924999999999999822e-01

3.024999999999999911e-01

3.200000000000000067e-01

3.375000000000000222e-01

3.574999999999999845e-01

3.724999999999999978e-01

3.850000000000000089e-01

3.925000000000000155e-01

3.950000000000000178e-01

4.025000000000000244e-01

4.099999999999999756e-01

4.274999999999999911e-01

4.600000000000000200e-01

5.050000000000000044e-01

5.500000000000000444e-01

5.699999999999999512e-01

5.649999999999999467e-01

5.474999999999999867e-01

5.224999999999999645e-01

4.824999999999999845e-01

4.475000000000000089e-01

4.199999999999999845e-01

4.000000000000000222e-01

3.775000000000000022e-01

3.549999999999999822e-01

3.175000000000000044e-01

2.775000000000000244e-01

2.500000000000000000e-01

2.399999999999999911e-01

2.349999999999999867e-01

2.349999999999999867e-01

2.399999999999999911e-01

2.449999999999999956e-01

2.399999999999999911e-01

2.399999999999999911e-01

2.399999999999999911e-01

2.374999999999999889e-01

2.399999999999999911e-01

2.449999999999999956e-01

2.474999999999999978e-01

2.474999999999999978e-01

2.449999999999999956e-01

2.374999999999999889e-01

2.275000000000000078e-01

2.099999999999999922e-01

2.074999999999999900e-01

2.275000000000000078e-01

2.899999999999999800e-01

3.474999999999999756e-01

4.324999999999999956e-01

5.849999999999999645e-01

8.050000000000000488e-01

1.087499999999999911e+00

1.399999999999999911e+00

1.602500000000000036e+00

1.747500000000000053e+00

1.912500000000000089e+00

2.127499999999999947e+00

2.302500000000000213e+00

2.297499999999999876e+00

2.055000000000000160e+00

1.602500000000000036e+00

1.047500000000000098e+00

5.424999999999999822e-01

1.675000000000000100e-01

-6.250000000000000000e-02

-1.575000000000000011e-01

-1.724999999999999867e-01

-1.524999999999999967e-01

-1.375000000000000111e-01

-1.250000000000000000e-01

-1.100000000000000006e-01

-9.750000000000000333e-02

-9.750000000000000333e-02

-8.999999999999999667e-02

-8.000000000000000167e-02

-6.250000000000000000e-02

-5.249999999999999806e-02

-5.249999999999999806e-02

-7.000000000000000666e-02

-8.250000000000000389e-02

-9.249999999999999889e-02

-9.750000000000000333e-02

-1.000000000000000056e-01

-1.000000000000000056e-01

-9.750000000000000333e-02

-8.999999999999999667e-02

-8.250000000000000389e-02

-7.499999999999999722e-02

-7.249999999999999500e-02

-8.000000000000000167e-02

-7.249999999999999500e-02

-6.500000000000000222e-02

-5.249999999999999806e-02

-4.250000000000000305e-02

-2.999999999999999889e-02

-2.000000000000000042e-02

-2.000000000000000042e-02

-2.999999999999999889e-02

-5.249999999999999806e-02

-7.249999999999999500e-02

-7.499999999999999722e-02

-5.750000000000000250e-02

-2.999999999999999889e-02

1.000000000000000021e-02

2.999999999999999889e-02

3.500000000000000333e-02

2.750000000000000014e-02

2.500000000000000139e-02

3.500000000000000333e-02

5.249999999999999806e-02

8.000000000000000167e-02

1.074999999999999983e-01

1.275000000000000022e-01

1.375000000000000111e-01

1.474999999999999922e-01

1.625000000000000056e-01

1.724999999999999867e-01

1.749999999999999889e-01

1.724999999999999867e-01

1.749999999999999889e-01

1.849999999999999978e-01

2.074999999999999900e-01

2.174999999999999989e-01

2.225000000000000033e-01

2.124999999999999944e-01

2.074999999999999900e-01

2.099999999999999922e-01

2.200000000000000011e-01

2.275000000000000078e-01

2.275000000000000078e-01

2.225000000000000033e-01

2.200000000000000011e-01

2.174999999999999989e-01

2.124999999999999944e-01

2.099999999999999922e-01

2.000000000000000111e-01

1.900000000000000022e-01

1.849999999999999978e-01

1.849999999999999978e-01

1.824999999999999956e-01

1.749999999999999889e-01

1.625000000000000056e-01

1.474999999999999922e-01

1.400000000000000133e-01

1.524999999999999967e-01

1.650000000000000078e-01

1.824999999999999956e-01

1.849999999999999978e-01

1.849999999999999978e-01

1.849999999999999978e-01

1.749999999999999889e-01

1.575000000000000011e-01

1.549999999999999989e-01

1.549999999999999989e-01

1.724999999999999867e-01

2.000000000000000111e-01

2.300000000000000100e-01

2.500000000000000000e-01

2.625000000000000111e-01

2.625000000000000111e-01

2.575000000000000067e-01

2.650000000000000133e-01

2.849999999999999756e-01

3.125000000000000000e-01

3.449999999999999734e-01

3.724999999999999978e-01

3.850000000000000089e-01

4.025000000000000244e-01

4.099999999999999756e-01

4.050000000000000266e-01

3.875000000000000111e-01

3.649999999999999911e-01

3.225000000000000089e-01

2.899999999999999800e-01

2.650000000000000133e-01

2.474999999999999978e-01

2.300000000000000100e-01

2.025000000000000133e-01

1.650000000000000078e-01

1.275000000000000022e-01

1.024999999999999939e-01

1.024999999999999939e-01

9.750000000000000333e-02

1.000000000000000056e-01

1.074999999999999983e-01

1.199999999999999956e-01

1.275000000000000022e-01

1.275000000000000022e-01

1.275000000000000022e-01

1.250000000000000000e-01

1.250000000000000000e-01

1.250000000000000000e-01

1.275000000000000022e-01

1.250000000000000000e-01

1.125000000000000028e-01

1.074999999999999983e-01

9.750000000000000333e-02

8.250000000000000389e-02

8.500000000000000611e-02

1.199999999999999956e-01

1.749999999999999889e-01

2.399999999999999911e-01

3.674999999999999933e-01

5.649999999999999467e-01

8.275000000000000133e-01

1.120000000000000107e+00

1.372500000000000053e+00

1.530000000000000027e+00

1.665000000000000036e+00

1.857499999999999929e+00

2.092499999999999805e+00

2.242500000000000160e+00

2.160000000000000142e+00

1.814999999999999947e+00

1.292499999999999982e+00

7.399999999999999911e-01

2.725000000000000200e-01

-4.250000000000000305e-02

-2.000000000000000111e-01

-2.550000000000000044e-01

-2.449999999999999956e-01

-2.124999999999999944e-01

-1.925000000000000044e-01

-1.799999999999999933e-01

-1.724999999999999867e-01

-1.549999999999999989e-01

-1.524999999999999967e-01

-1.524999999999999967e-01

-1.449999999999999900e-01

-1.350000000000000089e-01

-1.250000000000000000e-01

-1.199999999999999956e-01

-1.174999999999999933e-01

-1.100000000000000006e-01

-1.100000000000000006e-01

-1.100000000000000006e-01

-1.100000000000000006e-01

-1.074999999999999983e-01

-1.024999999999999939e-01

-9.750000000000000333e-02

-8.500000000000000611e-02

-8.250000000000000389e-02

-8.000000000000000167e-02

-8.000000000000000167e-02

-7.499999999999999722e-02

-7.499999999999999722e-02

-7.249999999999999500e-02

-7.499999999999999722e-02

-7.000000000000000666e-02

-6.500000000000000222e-02

-6.500000000000000222e-02

-6.500000000000000222e-02

-6.250000000000000000e-02

-5.500000000000000028e-02

-4.250000000000000305e-02

-2.750000000000000014e-02

-2.500000000000000139e-02

-2.000000000000000042e-02

-1.499999999999999944e-02

1.000000000000000021e-02

2.999999999999999889e-02

5.249999999999999806e-02

7.499999999999999722e-02

8.999999999999999667e-02

1.024999999999999939e-01

1.199999999999999956e-01

1.375000000000000111e-01

1.575000000000000011e-01

1.724999999999999867e-01

1.900000000000000022e-01

2.000000000000000111e-01

2.174999999999999989e-01

2.300000000000000100e-01

2.449999999999999956e-01

2.550000000000000044e-01

2.650000000000000133e-01

2.725000000000000200e-01

2.750000000000000222e-01

2.750000000000000222e-01

2.775000000000000244e-01

2.824999999999999734e-01

2.824999999999999734e-01

2.775000000000000244e-01

2.725000000000000200e-01

2.725000000000000200e-01

2.725000000000000200e-01

2.750000000000000222e-01

2.775000000000000244e-01

2.750000000000000222e-01

2.725000000000000200e-01

2.725000000000000200e-01

2.750000000000000222e-01

2.750000000000000222e-01

2.725000000000000200e-01

2.675000000000000155e-01

2.575000000000000067e-01

2.474999999999999978e-01

2.474999999999999978e-01

2.500000000000000000e-01

2.575000000000000067e-01

2.625000000000000111e-01

2.575000000000000067e-01

2.575000000000000067e-01

2.625000000000000111e-01

2.675000000000000155e-01

2.725000000000000200e-01

2.675000000000000155e-01

2.675000000000000155e-01

2.824999999999999734e-01

3.024999999999999911e-01

3.275000000000000133e-01

3.449999999999999734e-01

3.574999999999999845e-01

3.724999999999999978e-01

3.825000000000000067e-01

3.925000000000000155e-01

4.000000000000000222e-01

4.050000000000000266e-01

4.199999999999999845e-01

4.500000000000000111e-01

4.849999999999999867e-01

5.150000000000000133e-01

5.300000000000000266e-01

5.300000000000000266e-01

5.100000000000000089e-01

4.849999999999999867e-01

4.550000000000000155e-01

4.149999999999999800e-01

3.950000000000000178e-01

3.775000000000000022e-01

3.674999999999999933e-01

3.400000000000000244e-01

2.999999999999999889e-01

2.550000000000000044e-01

2.225000000000000033e-01

2.074999999999999900e-01

2.000000000000000111e-01

1.950000000000000067e-01

2.000000000000000111e-01

2.074999999999999900e-01

2.174999999999999989e-01

2.174999999999999989e-01

2.174999999999999989e-01

2.124999999999999944e-01

2.099999999999999922e-01

2.025000000000000133e-01

2.025000000000000133e-01

2.025000000000000133e-01

2.074999999999999900e-01

2.025000000000000133e-01

1.925000000000000044e-01

1.724999999999999867e-01

1.575000000000000011e-01

1.675000000000000100e-01

2.174999999999999989e-01

2.725000000000000200e-01

3.574999999999999845e-01

5.024999999999999467e-01

7.075000000000000178e-01

9.799999999999999822e-01

1.280000000000000027e+00

1.510000000000000009e+00

1.669999999999999929e+00

1.832500000000000018e+00

2.044999999999999929e+00

2.234999999999999876e+00

2.270000000000000018e+00

2.055000000000000160e+00

1.622500000000000053e+00

1.074999999999999956e+00

5.600000000000000533e-01

1.650000000000000078e-01

-8.999999999999999667e-02

-2.025000000000000133e-01

-2.300000000000000100e-01

-2.174999999999999989e-01

-1.950000000000000067e-01

-1.824999999999999956e-01

-1.749999999999999889e-01

-1.675000000000000100e-01

-1.650000000000000078e-01

-1.625000000000000056e-01

-1.575000000000000011e-01

-1.524999999999999967e-01

-1.400000000000000133e-01

-1.400000000000000133e-01

-1.375000000000000111e-01

-1.300000000000000044e-01

-1.199999999999999956e-01

-1.174999999999999933e-01

-1.174999999999999933e-01

-1.100000000000000006e-01

-1.074999999999999983e-01

-1.000000000000000056e-01

-9.249999999999999889e-02

-8.999999999999999667e-02

-8.250000000000000389e-02

-8.250000000000000389e-02

-8.000000000000000167e-02

-8.250000000000000389e-02

-8.999999999999999667e-02

-9.249999999999999889e-02

-9.750000000000000333e-02

-8.999999999999999667e-02

-8.250000000000000389e-02

-8.000000000000000167e-02

-7.000000000000000666e-02

-5.750000000000000250e-02

-4.750000000000000056e-02

-2.999999999999999889e-02

-2.000000000000000042e-02

0.000000000000000000e+00

7.499999999999999722e-03

2.000000000000000042e-02

4.250000000000000305e-02

6.500000000000000222e-02

8.250000000000000389e-02

1.024999999999999939e-01

1.174999999999999933e-01

1.275000000000000022e-01

1.449999999999999900e-01

1.575000000000000011e-01

1.749999999999999889e-01

1.900000000000000022e-01

2.025000000000000133e-01

2.174999999999999989e-01

2.275000000000000078e-01

2.374999999999999889e-01

2.449999999999999956e-01

2.500000000000000000e-01

2.575000000000000067e-01

2.625000000000000111e-01

2.625000000000000111e-01

2.650000000000000133e-01

2.675000000000000155e-01

2.725000000000000200e-01

2.725000000000000200e-01

2.750000000000000222e-01

2.750000000000000222e-01

2.675000000000000155e-01

2.650000000000000133e-01

2.625000000000000111e-01

2.575000000000000067e-01

2.500000000000000000e-01

2.550000000000000044e-01

2.500000000000000000e-01

2.500000000000000000e-01

2.500000000000000000e-01

2.500000000000000000e-01

2.474999999999999978e-01

2.449999999999999956e-01

2.399999999999999911e-01

2.449999999999999956e-01

2.399999999999999911e-01

2.449999999999999956e-01

2.449999999999999956e-01

2.449999999999999956e-01

2.399999999999999911e-01

2.449999999999999956e-01

2.449999999999999956e-01

2.500000000000000000e-01

2.550000000000000044e-01

2.675000000000000155e-01

2.899999999999999800e-01

3.099999999999999978e-01

3.300000000000000155e-01

3.499999999999999778e-01

3.649999999999999911e-01

3.750000000000000000e-01

3.875000000000000111e-01

4.000000000000000222e-01

4.099999999999999756e-01

4.199999999999999845e-01

4.550000000000000155e-01

4.924999999999999933e-01

5.300000000000000266e-01

5.500000000000000444e-01

5.474999999999999867e-01

5.300000000000000266e-01

5.024999999999999467e-01

4.575000000000000178e-01

4.099999999999999756e-01

3.775000000000000022e-01

3.674999999999999933e-01

3.599999999999999867e-01

3.449999999999999734e-01

3.099999999999999978e-01

2.650000000000000133e-01

2.349999999999999867e-01

2.174999999999999989e-01

2.174999999999999989e-01

2.174999999999999989e-01

2.200000000000000011e-01

2.275000000000000078e-01

2.300000000000000100e-01

2.275000000000000078e-01

2.275000000000000078e-01

2.225000000000000033e-01

2.275000000000000078e-01

2.225000000000000033e-01

2.174999999999999989e-01

2.174999999999999989e-01

2.200000000000000011e-01

2.200000000000000011e-01

2.124999999999999944e-01

1.950000000000000067e-01

1.799999999999999933e-01

1.900000000000000022e-01

2.349999999999999867e-01

2.924999999999999822e-01

3.825000000000000067e-01

5.300000000000000266e-01

7.425000000000000488e-01

1.010000000000000009e+00

1.294999999999999929e+00

1.510000000000000009e+00

1.659999999999999920e+00

1.832500000000000018e+00

2.055000000000000160e+00

2.247500000000000053e+00

2.270000000000000018e+00

2.042499999999999982e+00

1.594999999999999973e+00

1.044999999999999929e+00

5.300000000000000266e-01

1.375000000000000111e-01

-1.100000000000000006e-01

-2.200000000000000011e-01

-2.449999999999999956e-01

-2.200000000000000011e-01

-1.950000000000000067e-01

-1.799999999999999933e-01

-1.675000000000000100e-01

-1.549999999999999989e-01

-1.524999999999999967e-01

-1.575000000000000011e-01

-1.575000000000000011e-01

-1.549999999999999989e-01

-1.449999999999999900e-01

-1.474999999999999922e-01

-1.449999999999999900e-01

-1.400000000000000133e-01

-1.350000000000000089e-01

-1.275000000000000022e-01

-1.250000000000000000e-01

-1.250000000000000000e-01

-1.199999999999999956e-01

-1.174999999999999933e-01

-1.125000000000000028e-01

-1.125000000000000028e-01

-1.100000000000000006e-01

-1.100000000000000006e-01

-1.100000000000000006e-01

-1.100000000000000006e-01

-1.100000000000000006e-01

-1.074999999999999983e-01

-1.024999999999999939e-01

-9.750000000000000333e-02

-8.999999999999999667e-02

-8.500000000000000611e-02

-7.499999999999999722e-02

-6.250000000000000000e-02

-5.249999999999999806e-02

-3.749999999999999861e-02

-2.750000000000000014e-02

-1.499999999999999944e-02

7.499999999999999722e-03

2.000000000000000042e-02

3.500000000000000333e-02

5.500000000000000028e-02

7.249999999999999500e-02

8.999999999999999667e-02

1.024999999999999939e-01

1.174999999999999933e-01

1.300000000000000044e-01

1.474999999999999922e-01

1.675000000000000100e-01

1.900000000000000022e-01

2.000000000000000111e-01

2.124999999999999944e-01

2.225000000000000033e-01

2.349999999999999867e-01

2.399999999999999911e-01

2.474999999999999978e-01

2.500000000000000000e-01

2.550000000000000044e-01

2.575000000000000067e-01

2.675000000000000155e-01

2.750000000000000222e-01

2.775000000000000244e-01

2.849999999999999756e-01

2.899999999999999800e-01

2.924999999999999822e-01

2.924999999999999822e-01

2.949999999999999845e-01

2.899999999999999800e-01

2.824999999999999734e-01

2.725000000000000200e-01

2.650000000000000133e-01

2.575000000000000067e-01

2.550000000000000044e-01

2.550000000000000044e-01

2.474999999999999978e-01

2.449999999999999956e-01

2.374999999999999889e-01

2.374999999999999889e-01

2.374999999999999889e-01

2.399999999999999911e-01

2.449999999999999956e-01

2.500000000000000000e-01

2.500000000000000000e-01

2.500000000000000000e-01

2.500000000000000000e-01

2.500000000000000000e-01

2.550000000000000044e-01

2.650000000000000133e-01

2.750000000000000222e-01

2.899999999999999800e-01

3.099999999999999978e-01

3.300000000000000155e-01

3.499999999999999778e-01

3.649999999999999911e-01

3.724999999999999978e-01

3.825000000000000067e-01

3.875000000000000111e-01

4.000000000000000222e-01

4.050000000000000266e-01

4.299999999999999933e-01

4.650000000000000244e-01

5.024999999999999467e-01

5.250000000000000222e-01

5.374999999999999778e-01

5.300000000000000266e-01

5.050000000000000044e-01

4.774999999999999800e-01

4.400000000000000022e-01

4.149999999999999800e-01

4.000000000000000222e-01

3.825000000000000067e-01

3.574999999999999845e-01

3.275000000000000133e-01

2.824999999999999734e-01

2.474999999999999978e-01

2.225000000000000033e-01

2.200000000000000011e-01

2.174999999999999989e-01

2.225000000000000033e-01

2.300000000000000100e-01

2.349999999999999867e-01

2.300000000000000100e-01

2.275000000000000078e-01

2.275000000000000078e-01

2.300000000000000100e-01

2.225000000000000033e-01

2.225000000000000033e-01

2.200000000000000011e-01

2.124999999999999944e-01

2.074999999999999900e-01

2.000000000000000111e-01

1.900000000000000022e-01

1.724999999999999867e-01

1.799999999999999933e-01

2.174999999999999989e-01

2.725000000000000200e-01

3.474999999999999756e-01

4.774999999999999800e-01

6.600000000000000311e-01

9.100000000000000311e-01

1.199999999999999956e+00

1.449999999999999956e+00

1.629999999999999893e+00

1.787500000000000089e+00

1.995000000000000107e+00

2.207500000000000018e+00

2.292499999999999982e+00

2.152499999999999858e+00

1.770000000000000018e+00

1.247500000000000053e+00

7.125000000000000222e-01

2.750000000000000222e-01

-2.500000000000000139e-02

-1.675000000000000100e-01

-2.275000000000000078e-01

-2.225000000000000033e-01

-2.074999999999999900e-01

-1.824999999999999956e-01

-1.650000000000000078e-01

-1.474999999999999922e-01

-1.400000000000000133e-01

-1.474999999999999922e-01

-1.524999999999999967e-01

-1.449999999999999900e-01

-1.375000000000000111e-01

-1.375000000000000111e-01

-1.350000000000000089e-01

-1.350000000000000089e-01

-1.275000000000000022e-01

-1.250000000000000000e-01

-1.174999999999999933e-01

-1.125000000000000028e-01

-1.100000000000000006e-01

-1.100000000000000006e-01

-1.100000000000000006e-01

-1.074999999999999983e-01

-1.024999999999999939e-01

-1.024999999999999939e-01

-1.024999999999999939e-01

-1.024999999999999939e-01

-9.750000000000000333e-02

-9.249999999999999889e-02

-8.999999999999999667e-02

-8.250000000000000389e-02

-7.499999999999999722e-02

-7.000000000000000666e-02

-5.750000000000000250e-02

-4.750000000000000056e-02

-3.500000000000000333e-02

-2.000000000000000042e-02

0.000000000000000000e+00

1.750000000000000167e-02

3.500000000000000333e-02

5.249999999999999806e-02

7.000000000000000666e-02

8.500000000000000611e-02

1.000000000000000056e-01

1.125000000000000028e-01

1.300000000000000044e-01

1.449999999999999900e-01

1.575000000000000011e-01

1.724999999999999867e-01

1.849999999999999978e-01

1.950000000000000067e-01

2.074999999999999900e-01

2.174999999999999989e-01

2.349999999999999867e-01

2.399999999999999911e-01

2.500000000000000000e-01

2.575000000000000067e-01

2.650000000000000133e-01

2.675000000000000155e-01

2.750000000000000222e-01

2.775000000000000244e-01

2.849999999999999756e-01

2.849999999999999756e-01

2.849999999999999756e-01

2.824999999999999734e-01

2.775000000000000244e-01

2.775000000000000244e-01

2.750000000000000222e-01

2.750000000000000222e-01

2.775000000000000244e-01

2.750000000000000222e-01

2.725000000000000200e-01

2.650000000000000133e-01

2.575000000000000067e-01

2.575000000000000067e-01

2.575000000000000067e-01

2.550000000000000044e-01

2.500000000000000000e-01

2.550000000000000044e-01

2.550000000000000044e-01

2.550000000000000044e-01

2.575000000000000067e-01

2.500000000000000000e-01

2.500000000000000000e-01

2.474999999999999978e-01

2.500000000000000000e-01

2.500000000000000000e-01

2.550000000000000044e-01

2.625000000000000111e-01

2.725000000000000200e-01

2.824999999999999734e-01

3.024999999999999911e-01

3.275000000000000133e-01

3.449999999999999734e-01

3.649999999999999911e-01

3.750000000000000000e-01

3.775000000000000022e-01

3.850000000000000089e-01

3.950000000000000178e-01

4.099999999999999756e-01

4.299999999999999933e-01

4.600000000000000200e-01

4.974999999999999978e-01

5.250000000000000222e-01

5.400000000000000355e-01

5.324999999999999734e-01

5.150000000000000133e-01

4.924999999999999933e-01

4.500000000000000111e-01

4.199999999999999845e-01

3.950000000000000178e-01

3.825000000000000067e-01

3.649999999999999911e-01

3.400000000000000244e-01

2.999999999999999889e-01

2.625000000000000111e-01

2.349999999999999867e-01

2.275000000000000078e-01

2.200000000000000011e-01

2.200000000000000011e-01

2.200000000000000011e-01

2.225000000000000033e-01

2.225000000000000033e-01

2.275000000000000078e-01

2.300000000000000100e-01

2.349999999999999867e-01

2.374999999999999889e-01

2.374999999999999889e-01

2.349999999999999867e-01

2.300000000000000100e-01

2.200000000000000011e-01

2.124999999999999944e-01

2.074999999999999900e-01

1.900000000000000022e-01

1.799999999999999933e-01

2.000000000000000111e-01

2.449999999999999956e-01

3.024999999999999911e-01

4.025000000000000244e-01

5.600000000000000533e-01

7.724999999999999645e-01

1.047500000000000098e+00

1.334999999999999964e+00

1.547500000000000098e+00

1.705000000000000071e+00

1.879999999999999893e+00

2.097500000000000142e+00

2.254999999999999893e+00

2.237499999999999822e+00

1.972499999999999920e+00

1.510000000000000009e+00

9.625000000000000222e-01

4.699999999999999734e-01

1.074999999999999983e-01

-1.125000000000000028e-01

-2.074999999999999900e-01

-2.200000000000000011e-01

-1.950000000000000067e-01

-1.749999999999999889e-01

-1.625000000000000056e-01

-1.524999999999999967e-01

-1.449999999999999900e-01

-1.400000000000000133e-01

-1.375000000000000111e-01

-1.375000000000000111e-01

-1.300000000000000044e-01

-1.275000000000000022e-01

-1.250000000000000000e-01

-1.250000000000000000e-01

-1.174999999999999933e-01

-1.174999999999999933e-01

-1.174999999999999933e-01

-1.125000000000000028e-01

-1.074999999999999983e-01

-1.000000000000000056e-01

-9.750000000000000333e-02

-1.000000000000000056e-01

-1.000000000000000056e-01

-1.000000000000000056e-01

-1.024999999999999939e-01

-1.000000000000000056e-01

-9.750000000000000333e-02

-8.500000000000000611e-02

-8.250000000000000389e-02

-7.499999999999999722e-02

-7.000000000000000666e-02

-7.000000000000000666e-02

-6.500000000000000222e-02

-5.500000000000000028e-02

-4.499999999999999833e-02

-3.500000000000000333e-02

-2.750000000000000014e-02

0.000000000000000000e+00

1.750000000000000167e-02

2.999999999999999889e-02

4.250000000000000305e-02

5.750000000000000250e-02

6.500000000000000222e-02

8.250000000000000389e-02

1.024999999999999939e-01

1.250000000000000000e-01

1.375000000000000111e-01

1.549999999999999989e-01

1.749999999999999889e-01

1.900000000000000022e-01

2.025000000000000133e-01

2.174999999999999989e-01

2.300000000000000100e-01

2.374999999999999889e-01

2.399999999999999911e-01

2.449999999999999956e-01

2.449999999999999956e-01

2.500000000000000000e-01

2.575000000000000067e-01

2.650000000000000133e-01

2.675000000000000155e-01

2.675000000000000155e-01

2.725000000000000200e-01

2.675000000000000155e-01

2.675000000000000155e-01

2.675000000000000155e-01

2.675000000000000155e-01

2.725000000000000200e-01

2.725000000000000200e-01

2.675000000000000155e-01

2.650000000000000133e-01

2.550000000000000044e-01

2.500000000000000000e-01

2.500000000000000000e-01

2.474999999999999978e-01

2.449999999999999956e-01

2.449999999999999956e-01

2.399999999999999911e-01

2.374999999999999889e-01

2.374999999999999889e-01

2.349999999999999867e-01

2.349999999999999867e-01

2.300000000000000100e-01

2.374999999999999889e-01

2.374999999999999889e-01

2.374999999999999889e-01

2.399999999999999911e-01

2.449999999999999956e-01

2.449999999999999956e-01

2.575000000000000067e-01

2.725000000000000200e-01

2.999999999999999889e-01

3.200000000000000067e-01

3.400000000000000244e-01

3.574999999999999845e-01

3.649999999999999911e-01

3.750000000000000000e-01

3.850000000000000089e-01

3.950000000000000178e-01

4.099999999999999756e-01

4.400000000000000022e-01

4.749999999999999778e-01

5.100000000000000089e-01

5.324999999999999734e-01

5.400000000000000355e-01

5.250000000000000222e-01

5.024999999999999467e-01

4.600000000000000200e-01

4.199999999999999845e-01

3.950000000000000178e-01

3.775000000000000022e-01

3.599999999999999867e-01

3.375000000000000222e-01

2.949999999999999845e-01

2.550000000000000044e-01

2.200000000000000011e-01

2.099999999999999922e-01

2.000000000000000111e-01

2.000000000000000111e-01

2.025000000000000133e-01

2.099999999999999922e-01

2.124999999999999944e-01

2.124999999999999944e-01

2.099999999999999922e-01

2.074999999999999900e-01

2.025000000000000133e-01

2.025000000000000133e-01

2.025000000000000133e-01

2.074999999999999900e-01

2.124999999999999944e-01

2.025000000000000133e-01

1.925000000000000044e-01

1.675000000000000100e-01

1.524999999999999967e-01

1.625000000000000056e-01

2.025000000000000133e-01

2.474999999999999978e-01

3.225000000000000089e-01

4.550000000000000155e-01

6.524999999999999689e-01

9.150000000000000355e-01

1.209999999999999964e+00

1.445000000000000062e+00

1.610000000000000098e+00

1.770000000000000018e+00

1.989999999999999991e+00

2.182500000000000107e+00

2.234999999999999876e+00

2.035000000000000142e+00

1.620000000000000107e+00

1.082500000000000018e+00

5.699999999999999512e-01

1.799999999999999933e-01

-8.000000000000000167e-02

-1.925000000000000044e-01

-2.275000000000000078e-01

-2.074999999999999900e-01

-1.900000000000000022e-01

-1.675000000000000100e-01

-1.575000000000000011e-01

-1.549999999999999989e-01

-1.575000000000000011e-01

-1.625000000000000056e-01

-1.625000000000000056e-01

-1.575000000000000011e-01

-1.449999999999999900e-01

-1.449999999999999900e-01

-1.449999999999999900e-01

-1.400000000000000133e-01

-1.350000000000000089e-01

-1.250000000000000000e-01

-1.174999999999999933e-01

-1.125000000000000028e-01

-1.100000000000000006e-01

-1.074999999999999983e-01

-1.024999999999999939e-01

-9.750000000000000333e-02

-9.249999999999999889e-02

-9.249999999999999889e-02

-9.249999999999999889e-02

-8.999999999999999667e-02

-8.500000000000000611e-02

-8.000000000000000167e-02

-7.249999999999999500e-02

-7.000000000000000666e-02

-6.250000000000000000e-02

-5.750000000000000250e-02

-4.750000000000000056e-02

-3.749999999999999861e-02

-2.750000000000000014e-02

-1.750000000000000167e-02

2.500000000000000052e-03

1.750000000000000167e-02

3.500000000000000333e-02

5.249999999999999806e-02

6.500000000000000222e-02

8.250000000000000389e-02

1.000000000000000056e-01

1.174999999999999933e-01

1.300000000000000044e-01

1.449999999999999900e-01

1.575000000000000011e-01

1.749999999999999889e-01

1.849999999999999978e-01

2.025000000000000133e-01

2.124999999999999944e-01

2.225000000000000033e-01

2.300000000000000100e-01

2.399999999999999911e-01

2.474999999999999978e-01

2.550000000000000044e-01

2.575000000000000067e-01

2.625000000000000111e-01

2.650000000000000133e-01

2.675000000000000155e-01

2.675000000000000155e-01

2.750000000000000222e-01

2.750000000000000222e-01

2.750000000000000222e-01

2.750000000000000222e-01

2.725000000000000200e-01

2.725000000000000200e-01

2.675000000000000155e-01

2.675000000000000155e-01

2.650000000000000133e-01

2.625000000000000111e-01

2.550000000000000044e-01

2.500000000000000000e-01

2.500000000000000000e-01

2.500000000000000000e-01

2.500000000000000000e-01

2.550000000000000044e-01

2.474999999999999978e-01

2.474999999999999978e-01

2.449999999999999956e-01

2.449999999999999956e-01

2.449999999999999956e-01

2.474999999999999978e-01

2.500000000000000000e-01

2.550000000000000044e-01

2.625000000000000111e-01

2.650000000000000133e-01

2.675000000000000155e-01

2.775000000000000244e-01

2.924999999999999822e-01

3.125000000000000000e-01

3.300000000000000155e-01

3.499999999999999778e-01

3.649999999999999911e-01

3.775000000000000022e-01

3.850000000000000089e-01

3.925000000000000155e-01

4.050000000000000266e-01

4.149999999999999800e-01

4.324999999999999956e-01

4.650000000000000244e-01

5.024999999999999467e-01

5.374999999999999778e-01

5.500000000000000444e-01

5.500000000000000444e-01

5.324999999999999734e-01

5.024999999999999467e-01

4.675000000000000266e-01

4.274999999999999911e-01

4.000000000000000222e-01

3.825000000000000067e-01

3.649999999999999911e-01

3.375000000000000222e-01

2.999999999999999889e-01

2.625000000000000111e-01

2.349999999999999867e-01

2.200000000000000011e-01

2.174999999999999989e-01

2.174999999999999989e-01

2.124999999999999944e-01

2.174999999999999989e-01

2.174999999999999989e-01

2.200000000000000011e-01

2.200000000000000011e-01

2.275000000000000078e-01

2.275000000000000078e-01

2.225000000000000033e-01

2.225000000000000033e-01

2.200000000000000011e-01

2.200000000000000011e-01

2.174999999999999989e-01

1.950000000000000067e-01

1.724999999999999867e-01

1.549999999999999989e-01

1.724999999999999867e-01

2.174999999999999989e-01

2.775000000000000244e-01

3.750000000000000000e-01

5.324999999999999734e-01

7.500000000000000000e-01

1.032499999999999973e+00

1.310000000000000053e+00

1.514999999999999902e+00

1.677499999999999991e+00

1.860000000000000098e+00

2.082500000000000018e+00

2.247500000000000053e+00

2.225000000000000089e+00

1.952499999999999902e+00

1.482499999999999929e+00

9.274999999999999911e-01

4.375000000000000000e-01

8.999999999999999667e-02

-1.174999999999999933e-01

-1.950000000000000067e-01

-2.025000000000000133e-01

-1.824999999999999956e-01

-1.575000000000000011e-01

-1.549999999999999989e-01

-1.549999999999999989e-01

-1.575000000000000011e-01

-1.575000000000000011e-01

-1.524999999999999967e-01

-1.275000000000000022e-01

-1.074999999999999983e-01

-9.249999999999999889e-02

-1.024999999999999939e-01

-1.199999999999999956e-01

-1.375000000000000111e-01

-1.474999999999999922e-01

-1.524999999999999967e-01

-1.474999999999999922e-01

-1.375000000000000111e-01

-1.300000000000000044e-01

-1.250000000000000000e-01

-1.100000000000000006e-01

-1.024999999999999939e-01

-1.000000000000000056e-01

-9.750000000000000333e-02

-9.750000000000000333e-02

-8.999999999999999667e-02

-8.500000000000000611e-02

-7.249999999999999500e-02

-6.500000000000000222e-02

-5.500000000000000028e-02

-4.750000000000000056e-02

-4.250000000000000305e-02

-3.749999999999999861e-02

-3.500000000000000333e-02

-2.750000000000000014e-02

-1.750000000000000167e-02

7.499999999999999722e-03

2.000000000000000042e-02

2.999999999999999889e-02

4.250000000000000305e-02

5.249999999999999806e-02

7.499999999999999722e-02

9.249999999999999889e-02

1.125000000000000028e-01

1.350000000000000089e-01

1.524999999999999967e-01

1.650000000000000078e-01

1.724999999999999867e-01

1.900000000000000022e-01

2.025000000000000133e-01

2.174999999999999989e-01

2.275000000000000078e-01

2.374999999999999889e-01

2.449999999999999956e-01

2.449999999999999956e-01

2.474999999999999978e-01

2.550000000000000044e-01

2.575000000000000067e-01

2.625000000000000111e-01

2.625000000000000111e-01

2.650000000000000133e-01

2.675000000000000155e-01

2.725000000000000200e-01

2.725000000000000200e-01

2.675000000000000155e-01

2.650000000000000133e-01

2.625000000000000111e-01

2.650000000000000133e-01

2.625000000000000111e-01

2.575000000000000067e-01

2.500000000000000000e-01

2.474999999999999978e-01

2.449999999999999956e-01

2.449999999999999956e-01

2.449999999999999956e-01

2.399999999999999911e-01

2.399999999999999911e-01

2.399999999999999911e-01

2.449999999999999956e-01

2.474999999999999978e-01

2.500000000000000000e-01

2.500000000000000000e-01

2.500000000000000000e-01

2.550000000000000044e-01

2.550000000000000044e-01

2.550000000000000044e-01

2.575000000000000067e-01

2.625000000000000111e-01

2.725000000000000200e-01

2.824999999999999734e-01

3.024999999999999911e-01

3.225000000000000089e-01

3.400000000000000244e-01

3.499999999999999778e-01

3.574999999999999845e-01

3.724999999999999978e-01

3.850000000000000089e-01

3.950000000000000178e-01

4.124999999999999778e-01

4.324999999999999956e-01

4.699999999999999734e-01

5.100000000000000089e-01

5.424999999999999822e-01

5.500000000000000444e-01

5.400000000000000355e-01

5.150000000000000133e-01

4.824999999999999845e-01

4.400000000000000022e-01

4.099999999999999756e-01

3.850000000000000089e-01

3.649999999999999911e-01

3.400000000000000244e-01

3.024999999999999911e-01

2.625000000000000111e-01

2.275000000000000078e-01

2.074999999999999900e-01

2.025000000000000133e-01

2.000000000000000111e-01

2.000000000000000111e-01

2.074999999999999900e-01

2.174999999999999989e-01

2.174999999999999989e-01

2.200000000000000011e-01

2.200000000000000011e-01

2.174999999999999989e-01

2.124999999999999944e-01

2.074999999999999900e-01

2.074999999999999900e-01

2.074999999999999900e-01

2.025000000000000133e-01

2.000000000000000111e-01

1.824999999999999956e-01

1.549999999999999989e-01

1.474999999999999922e-01

1.724999999999999867e-01

2.174999999999999989e-01

2.725000000000000200e-01

3.775000000000000022e-01

5.474999999999999867e-01

7.874999999999999778e-01

1.082500000000000018e+00

1.347499999999999920e+00

1.537500000000000089e+00

1.679999999999999938e+00

1.872500000000000053e+00

2.089999999999999858e+00

2.220000000000000195e+00

2.142500000000000071e+00

1.822500000000000009e+00

1.334999999999999964e+00

8.050000000000000488e-01

3.499999999999999778e-01

3.749999999999999861e-02

-1.549999999999999989e-01

-2.225000000000000033e-01

-2.275000000000000078e-01

-2.074999999999999900e-01

-1.849999999999999978e-01

-1.675000000000000100e-01

-1.449999999999999900e-01

-1.350000000000000089e-01

-1.375000000000000111e-01

-1.474999999999999922e-01

-1.625000000000000056e-01

-1.650000000000000078e-01

-1.675000000000000100e-01

-1.650000000000000078e-01

-1.474999999999999922e-01

-1.350000000000000089e-01

-1.174999999999999933e-01

-1.074999999999999983e-01

-9.750000000000000333e-02

-8.999999999999999667e-02

-8.500000000000000611e-02

-9.249999999999999889e-02

-1.000000000000000056e-01

-1.024999999999999939e-01

-1.000000000000000056e-01

-1.000000000000000056e-01

-1.000000000000000056e-01

-1.024999999999999939e-01

-1.074999999999999983e-01

-1.074999999999999983e-01

-1.074999999999999983e-01

-1.024999999999999939e-01

-9.249999999999999889e-02

-8.000000000000000167e-02

-5.249999999999999806e-02

-2.999999999999999889e-02

-2.000000000000000042e-02

-2.000000000000000042e-02

-2.500000000000000139e-02

-2.500000000000000139e-02

0.000000000000000000e+00

2.000000000000000042e-02

4.499999999999999833e-02

6.250000000000000000e-02

7.249999999999999500e-02

8.000000000000000167e-02

8.999999999999999667e-02

1.074999999999999983e-01

1.350000000000000089e-01

1.474999999999999922e-01

1.575000000000000011e-01

1.625000000000000056e-01

1.724999999999999867e-01

1.799999999999999933e-01

1.900000000000000022e-01

2.000000000000000111e-01

2.000000000000000111e-01

1.925000000000000044e-01

1.824999999999999956e-01

1.749999999999999889e-01

1.749999999999999889e-01

1.724999999999999867e-01

1.749999999999999889e-01

1.799999999999999933e-01

1.824999999999999956e-01

1.849999999999999978e-01

2.000000000000000111e-01

2.124999999999999944e-01

2.174999999999999989e-01

2.124999999999999944e-01

2.025000000000000133e-01

1.749999999999999889e-01

1.575000000000000011e-01

1.474999999999999922e-01

1.524999999999999967e-01

1.549999999999999989e-01

1.549999999999999989e-01

1.474999999999999922e-01

1.474999999999999922e-01

1.449999999999999900e-01

1.549999999999999989e-01

1.575000000000000011e-01

1.524999999999999967e-01

1.375000000000000111e-01

1.174999999999999933e-01

1.000000000000000056e-01

9.750000000000000333e-02

1.074999999999999983e-01

1.300000000000000044e-01

1.449999999999999900e-01

1.575000000000000011e-01

1.675000000000000100e-01

1.900000000000000022e-01

2.174999999999999989e-01

2.449999999999999956e-01

2.650000000000000133e-01

2.824999999999999734e-01

2.949999999999999845e-01

3.024999999999999911e-01

3.049999999999999933e-01

3.125000000000000000e-01

3.474999999999999756e-01

3.950000000000000178e-01

4.425000000000000044e-01

4.600000000000000200e-01

4.400000000000000022e-01

4.050000000000000266e-01

3.649999999999999911e-01

3.200000000000000067e-01

2.824999999999999734e-01

2.625000000000000111e-01

2.500000000000000000e-01

2.474999999999999978e-01

2.200000000000000011e-01

1.799999999999999933e-01

1.250000000000000000e-01

9.249999999999999889e-02

8.000000000000000167e-02

8.000000000000000167e-02

8.999999999999999667e-02

1.000000000000000056e-01

1.100000000000000006e-01

1.199999999999999956e-01

1.199999999999999956e-01

1.199999999999999956e-01

1.100000000000000006e-01

9.249999999999999889e-02

8.000000000000000167e-02

7.000000000000000666e-02

6.500000000000000222e-02

7.000000000000000666e-02

6.500000000000000222e-02

5.500000000000000028e-02

3.749999999999999861e-02

3.500000000000000333e-02

7.000000000000000666e-02

1.199999999999999956e-01

2.000000000000000111e-01

3.375000000000000222e-01

5.424999999999999822e-01

8.050000000000000488e-01

1.097499999999999920e+00

1.340000000000000080e+00

1.500000000000000000e+00

1.629999999999999893e+00

1.830000000000000071e+00

2.062500000000000000e+00

2.200000000000000178e+00

2.097500000000000142e+00

1.739999999999999991e+00

1.192499999999999893e+00

6.324999999999999512e-01

1.675000000000000100e-01

-1.375000000000000111e-01

-2.999999999999999889e-01

-3.449999999999999734e-01

-3.275000000000000133e-01

-2.899999999999999800e-01

-2.675000000000000155e-01

-2.500000000000000000e-01

-2.399999999999999911e-01

-2.349999999999999867e-01

-2.349999999999999867e-01

-2.374999999999999889e-01

-2.300000000000000100e-01

-2.225000000000000033e-01

-2.174999999999999989e-01

-2.124999999999999944e-01

-2.025000000000000133e-01

-1.925000000000000044e-01

-1.799999999999999933e-01

-1.675000000000000100e-01

-1.625000000000000056e-01

-1.575000000000000011e-01

-1.575000000000000011e-01

-1.549999999999999989e-01

-1.474999999999999922e-01

-1.449999999999999900e-01

-1.350000000000000089e-01

-1.275000000000000022e-01

-1.199999999999999956e-01

-1.125000000000000028e-01

-1.125000000000000028e-01

-1.125000000000000028e-01

-1.024999999999999939e-01

-1.000000000000000056e-01

-8.500000000000000611e-02

-7.499999999999999722e-02

-6.500000000000000222e-02

-5.249999999999999806e-02

-4.499999999999999833e-02

-3.500000000000000333e-02

-1.750000000000000167e-02

2.500000000000000052e-03

2.000000000000000042e-02

2.999999999999999889e-02

4.250000000000000305e-02

5.750000000000000250e-02

7.499999999999999722e-02

9.750000000000000333e-02

1.199999999999999956e-01

1.400000000000000133e-01

1.650000000000000078e-01

1.849999999999999978e-01

2.074999999999999900e-01

2.174999999999999989e-01

2.225000000000000033e-01

2.300000000000000100e-01

2.399999999999999911e-01

2.474999999999999978e-01

2.575000000000000067e-01

2.625000000000000111e-01

2.725000000000000200e-01

2.775000000000000244e-01

2.849999999999999756e-01

2.949999999999999845e-01

3.024999999999999911e-01

3.024999999999999911e-01

2.999999999999999889e-01

2.999999999999999889e-01

3.049999999999999933e-01

3.099999999999999978e-01

3.099999999999999978e-01

3.125000000000000000e-01

3.175000000000000044e-01

3.175000000000000044e-01

3.125000000000000000e-01

3.024999999999999911e-01

2.924999999999999822e-01

2.775000000000000244e-01

2.650000000000000133e-01

2.550000000000000044e-01

2.449999999999999956e-01

2.399999999999999911e-01

2.449999999999999956e-01

2.474999999999999978e-01

2.500000000000000000e-01

2.550000000000000044e-01

2.625000000000000111e-01

2.675000000000000155e-01

2.725000000000000200e-01

2.824999999999999734e-01

2.899999999999999800e-01

2.949999999999999845e-01

3.024999999999999911e-01

3.099999999999999978e-01

3.225000000000000089e-01

3.474999999999999756e-01

3.724999999999999978e-01

3.925000000000000155e-01

4.025000000000000244e-01

4.124999999999999778e-01

4.199999999999999845e-01

4.274999999999999911e-01

4.324999999999999956e-01

4.475000000000000089e-01

4.774999999999999800e-01

5.124999999999999556e-01

5.374999999999999778e-01

5.500000000000000444e-01

5.424999999999999822e-01

5.224999999999999645e-01

4.974999999999999978e-01

4.675000000000000266e-01

4.324999999999999956e-01

4.124999999999999778e-01

4.025000000000000244e-01

3.850000000000000089e-01

3.599999999999999867e-01

3.200000000000000067e-01

2.824999999999999734e-01

2.625000000000000111e-01

2.449999999999999956e-01

2.349999999999999867e-01

2.349999999999999867e-01

2.349999999999999867e-01

2.399999999999999911e-01

2.449999999999999956e-01

2.500000000000000000e-01

2.474999999999999978e-01

2.474999999999999978e-01

2.474999999999999978e-01

2.550000000000000044e-01

2.550000000000000044e-01

2.575000000000000067e-01

2.550000000000000044e-01

2.449999999999999956e-01

2.300000000000000100e-01

2.074999999999999900e-01

1.925000000000000044e-01

2.174999999999999989e-01

2.675000000000000155e-01

3.300000000000000155e-01

4.299999999999999933e-01

5.975000000000000311e-01

8.325000000000000178e-01

1.152500000000000080e+00

1.409999999999999920e+00

1.587499999999999911e+00

1.739999999999999991e+00

1.917499999999999982e+00

2.142500000000000071e+00

2.302500000000000213e+00

2.254999999999999893e+00

1.955000000000000071e+00

1.472499999999999920e+00

9.100000000000000311e-01

4.224999999999999867e-01

8.000000000000000167e-02

-1.275000000000000022e-01

-2.074999999999999900e-01

-2.074999999999999900e-01

-1.799999999999999933e-01

-1.549999999999999989e-01

-1.400000000000000133e-01

-1.275000000000000022e-01

-1.125000000000000028e-01

-1.174999999999999933e-01

-1.250000000000000000e-01

-1.250000000000000000e-01

-1.174999999999999933e-01

-1.174999999999999933e-01

-1.174999999999999933e-01

-1.174999999999999933e-01

-1.100000000000000006e-01

-1.024999999999999939e-01

-1.000000000000000056e-01

-9.750000000000000333e-02

-8.999999999999999667e-02

-8.999999999999999667e-02

-8.250000000000000389e-02

-8.000000000000000167e-02

-8.000000000000000167e-02

-8.000000000000000167e-02

-8.250000000000000389e-02

-8.250000000000000389e-02

-8.250000000000000389e-02

-8.000000000000000167e-02

-8.000000000000000167e-02

-8.000000000000000167e-02

-7.499999999999999722e-02

-7.249999999999999500e-02

-6.250000000000000000e-02

-5.500000000000000028e-02

-4.499999999999999833e-02

-2.750000000000000014e-02

-1.750000000000000167e-02

2.500000000000000052e-03

1.499999999999999944e-02

2.500000000000000139e-02

3.749999999999999861e-02

5.500000000000000028e-02

7.499999999999999722e-02

9.249999999999999889e-02

1.100000000000000006e-01

1.250000000000000000e-01

1.350000000000000089e-01

1.449999999999999900e-01

1.625000000000000056e-01

1.749999999999999889e-01

1.925000000000000044e-01

2.099999999999999922e-01

2.275000000000000078e-01

2.399999999999999911e-01

2.474999999999999978e-01

2.474999999999999978e-01

2.550000000000000044e-01

2.625000000000000111e-01

2.650000000000000133e-01

2.675000000000000155e-01

2.725000000000000200e-01

2.725000000000000200e-01

2.750000000000000222e-01

2.750000000000000222e-01

2.725000000000000200e-01

2.725000000000000200e-01

2.675000000000000155e-01

2.650000000000000133e-01

2.650000000000000133e-01

2.625000000000000111e-01

2.625000000000000111e-01

2.550000000000000044e-01

2.500000000000000000e-01

2.474999999999999978e-01

2.449999999999999956e-01

2.474999999999999978e-01

2.449999999999999956e-01

2.474999999999999978e-01

2.474999999999999978e-01

2.449999999999999956e-01

2.449999999999999956e-01

2.449999999999999956e-01

2.500000000000000000e-01

2.550000000000000044e-01

2.575000000000000067e-01

2.625000000000000111e-01

2.625000000000000111e-01

2.625000000000000111e-01

2.625000000000000111e-01

2.725000000000000200e-01

2.849999999999999756e-01

3.024999999999999911e-01

3.275000000000000133e-01

3.449999999999999734e-01

3.599999999999999867e-01

3.724999999999999978e-01

3.825000000000000067e-01

3.925000000000000155e-01

4.000000000000000222e-01

4.124999999999999778e-01

4.324999999999999956e-01

4.675000000000000266e-01

5.024999999999999467e-01

5.300000000000000266e-01

5.374999999999999778e-01

5.300000000000000266e-01

5.124999999999999556e-01

4.824999999999999845e-01

4.400000000000000022e-01

4.050000000000000266e-01

3.825000000000000067e-01

3.674999999999999933e-01

3.499999999999999778e-01

3.175000000000000044e-01

2.824999999999999734e-01

2.449999999999999956e-01

2.225000000000000033e-01

2.124999999999999944e-01

2.124999999999999944e-01

2.099999999999999922e-01

2.174999999999999989e-01

2.200000000000000011e-01

2.200000000000000011e-01

2.174999999999999989e-01

2.099999999999999922e-01

2.124999999999999944e-01

2.124999999999999944e-01

2.124999999999999944e-01

2.124999999999999944e-01

2.124999999999999944e-01

2.074999999999999900e-01

2.000000000000000111e-01

1.799999999999999933e-01

1.549999999999999989e-01

1.474999999999999922e-01

1.799999999999999933e-01

2.374999999999999889e-01

3.099999999999999978e-01

4.299999999999999933e-01

6.075000000000000400e-01

8.499999999999999778e-01

1.137499999999999956e+00

1.402500000000000080e+00

1.592500000000000027e+00

1.750000000000000000e+00

1.945000000000000062e+00

2.160000000000000142e+00

2.270000000000000018e+00

2.162500000000000089e+00

1.807500000000000107e+00

1.284999999999999920e+00

7.399999999999999911e-01

2.824999999999999734e-01

-3.500000000000000333e-02

-1.950000000000000067e-01

-2.500000000000000000e-01

-2.399999999999999911e-01

-2.099999999999999922e-01

-1.900000000000000022e-01

-1.799999999999999933e-01

-1.675000000000000100e-01

-1.650000000000000078e-01

-1.675000000000000100e-01

-1.675000000000000100e-01

-1.625000000000000056e-01

-1.575000000000000011e-01

-1.549999999999999989e-01

-1.575000000000000011e-01

-1.524999999999999967e-01

-1.400000000000000133e-01

-1.400000000000000133e-01

-1.400000000000000133e-01

-1.350000000000000089e-01

-1.250000000000000000e-01

-1.199999999999999956e-01

-1.174999999999999933e-01

-1.100000000000000006e-01

-1.074999999999999983e-01

-1.074999999999999983e-01

-1.074999999999999983e-01

-1.100000000000000006e-01

-1.100000000000000006e-01

-1.074999999999999983e-01

-1.024999999999999939e-01

-1.000000000000000056e-01

-8.999999999999999667e-02

-8.250000000000000389e-02

-7.249999999999999500e-02

-7.000000000000000666e-02

-5.500000000000000028e-02

-4.250000000000000305e-02

-2.750000000000000014e-02

0.000000000000000000e+00

7.499999999999999722e-03

1.750000000000000167e-02

2.999999999999999889e-02

4.750000000000000056e-02

6.250000000000000000e-02

7.499999999999999722e-02

8.500000000000000611e-02

1.024999999999999939e-01

1.199999999999999956e-01

1.375000000000000111e-01

1.549999999999999989e-01

1.724999999999999867e-01

1.849999999999999978e-01

2.000000000000000111e-01

2.124999999999999944e-01

2.200000000000000011e-01

2.200000000000000011e-01

2.275000000000000078e-01

2.300000000000000100e-01

2.374999999999999889e-01

2.449999999999999956e-01

2.500000000000000000e-01

2.474999999999999978e-01

2.500000000000000000e-01

2.500000000000000000e-01

2.474999999999999978e-01

2.449999999999999956e-01

2.474999999999999978e-01

2.474999999999999978e-01

2.474999999999999978e-01

2.474999999999999978e-01

2.474999999999999978e-01

2.449999999999999956e-01

2.399999999999999911e-01

2.374999999999999889e-01

2.374999999999999889e-01

2.349999999999999867e-01

2.300000000000000100e-01

2.300000000000000100e-01

2.300000000000000100e-01

2.300000000000000100e-01

2.300000000000000100e-01

2.349999999999999867e-01

2.349999999999999867e-01

2.374999999999999889e-01

2.399999999999999911e-01

2.449999999999999956e-01

2.399999999999999911e-01

2.449999999999999956e-01

2.449999999999999956e-01

2.449999999999999956e-01

2.575000000000000067e-01

2.750000000000000222e-01

3.024999999999999911e-01

3.275000000000000133e-01

3.400000000000000244e-01

3.499999999999999778e-01

3.549999999999999822e-01

3.599999999999999867e-01

3.724999999999999978e-01

3.825000000000000067e-01

4.025000000000000244e-01

4.324999999999999956e-01

4.699999999999999734e-01

4.974999999999999978e-01

5.100000000000000089e-01

5.024999999999999467e-01

4.824999999999999845e-01

4.475000000000000089e-01

4.099999999999999756e-01

3.775000000000000022e-01

3.599999999999999867e-01

3.474999999999999756e-01

3.275000000000000133e-01

2.924999999999999822e-01

2.550000000000000044e-01

2.200000000000000011e-01

2.025000000000000133e-01

1.925000000000000044e-01

1.849999999999999978e-01

1.849999999999999978e-01

1.849999999999999978e-01

1.900000000000000022e-01

1.900000000000000022e-01

1.925000000000000044e-01

1.925000000000000044e-01

1.925000000000000044e-01

1.849999999999999978e-01

1.824999999999999956e-01

1.799999999999999933e-01

1.824999999999999956e-01

1.749999999999999889e-01

1.724999999999999867e-01

1.575000000000000011e-01

1.350000000000000089e-01

1.250000000000000000e-01

1.575000000000000011e-01

2.099999999999999922e-01

2.775000000000000244e-01

3.925000000000000155e-01

5.675000000000000044e-01

8.000000000000000444e-01

1.087499999999999911e+00

1.354999999999999982e+00

1.547500000000000098e+00

1.707500000000000018e+00

1.905000000000000027e+00

2.125000000000000000e+00

2.247500000000000053e+00

2.160000000000000142e+00

1.814999999999999947e+00

1.307500000000000107e+00

7.500000000000000000e-01

2.824999999999999734e-01

-4.250000000000000305e-02

-2.099999999999999922e-01

-2.675000000000000155e-01

-2.625000000000000111e-01

-2.399999999999999911e-01

-2.225000000000000033e-01

-2.099999999999999922e-01

-2.000000000000000111e-01

-1.900000000000000022e-01

-1.900000000000000022e-01

-1.900000000000000022e-01

-1.849999999999999978e-01

-1.799999999999999933e-01

-1.799999999999999933e-01

-1.749999999999999889e-01

-1.749999999999999889e-01

-1.724999999999999867e-01

-1.675000000000000100e-01

-1.650000000000000078e-01

-1.575000000000000011e-01

-1.524999999999999967e-01

-1.474999999999999922e-01

-1.474999999999999922e-01

-1.449999999999999900e-01

-1.449999999999999900e-01

-1.449999999999999900e-01

-1.400000000000000133e-01

-1.400000000000000133e-01

-1.350000000000000089e-01

-1.300000000000000044e-01

-1.275000000000000022e-01

-1.250000000000000000e-01

-1.174999999999999933e-01

-1.100000000000000006e-01

-1.000000000000000056e-01

-8.999999999999999667e-02

-8.250000000000000389e-02

-7.000000000000000666e-02

-5.500000000000000028e-02

-4.250000000000000305e-02

-2.750000000000000014e-02

-1.499999999999999944e-02

1.000000000000000021e-02

2.750000000000000014e-02

4.499999999999999833e-02

6.500000000000000222e-02

8.500000000000000611e-02

1.000000000000000056e-01

1.125000000000000028e-01

1.300000000000000044e-01

1.474999999999999922e-01

1.650000000000000078e-01

1.824999999999999956e-01

2.000000000000000111e-01

2.074999999999999900e-01

2.174999999999999989e-01

2.200000000000000011e-01

2.300000000000000100e-01

2.300000000000000100e-01

2.374999999999999889e-01

2.374999999999999889e-01

2.374999999999999889e-01

2.374999999999999889e-01

2.399999999999999911e-01

2.474999999999999978e-01

2.500000000000000000e-01

2.575000000000000067e-01

2.500000000000000000e-01

2.500000000000000000e-01

2.449999999999999956e-01

2.399999999999999911e-01

2.399999999999999911e-01

2.399999999999999911e-01

2.399999999999999911e-01

2.399999999999999911e-01

2.374999999999999889e-01

2.300000000000000100e-01

2.275000000000000078e-01

2.275000000000000078e-01

2.275000000000000078e-01

2.300000000000000100e-01

2.275000000000000078e-01

2.275000000000000078e-01

2.275000000000000078e-01

2.300000000000000100e-01

2.275000000000000078e-01

2.300000000000000100e-01

2.300000000000000100e-01

2.349999999999999867e-01

2.449999999999999956e-01

2.550000000000000044e-01

2.675000000000000155e-01

2.824999999999999734e-01

3.049999999999999933e-01

3.275000000000000133e-01

3.499999999999999778e-01

3.674999999999999933e-01

3.775000000000000022e-01

3.875000000000000111e-01

4.000000000000000222e-01

4.099999999999999756e-01

4.274999999999999911e-01

4.600000000000000200e-01

5.024999999999999467e-01

5.250000000000000222e-01

5.424999999999999822e-01

5.324999999999999734e-01

5.200000000000000178e-01

4.949999999999999956e-01

4.600000000000000200e-01

4.224999999999999867e-01

4.000000000000000222e-01

3.850000000000000089e-01

3.750000000000000000e-01

3.474999999999999756e-01

3.099999999999999978e-01

2.725000000000000200e-01

2.449999999999999956e-01

2.300000000000000100e-01

2.200000000000000011e-01

2.225000000000000033e-01

2.275000000000000078e-01

2.300000000000000100e-01

2.300000000000000100e-01

2.275000000000000078e-01

2.225000000000000033e-01

2.225000000000000033e-01

2.200000000000000011e-01

2.225000000000000033e-01

2.200000000000000011e-01

2.174999999999999989e-01

2.124999999999999944e-01

2.025000000000000133e-01

1.824999999999999956e-01

1.625000000000000056e-01

1.400000000000000133e-01

1.524999999999999967e-01

1.925000000000000044e-01

2.500000000000000000e-01

3.325000000000000178e-01

4.650000000000000244e-01

6.674999999999999822e-01

9.375000000000000000e-01

1.229999999999999982e+00

1.485000000000000098e+00

1.647499999999999964e+00

1.812500000000000000e+00

2.032500000000000195e+00

2.200000000000000178e+00

2.207500000000000018e+00

1.939999999999999947e+00

1.485000000000000098e+00

9.699999999999999734e-01

4.675000000000000266e-01

9.249999999999999889e-02

-1.375000000000000111e-01

-2.349999999999999867e-01

-2.474999999999999978e-01

-2.275000000000000078e-01

-2.074999999999999900e-01

-1.925000000000000044e-01

-1.749999999999999889e-01

-1.650000000000000078e-01

-1.625000000000000056e-01

-1.675000000000000100e-01

-1.724999999999999867e-01

-1.724999999999999867e-01

-1.724999999999999867e-01

-1.675000000000000100e-01

-1.650000000000000078e-01

-1.575000000000000011e-01

-1.474999999999999922e-01

-1.449999999999999900e-01

-1.400000000000000133e-01

-1.375000000000000111e-01

-1.375000000000000111e-01

-1.300000000000000044e-01

-1.300000000000000044e-01

-1.275000000000000022e-01

-1.250000000000000000e-01

-1.199999999999999956e-01

-1.250000000000000000e-01

-1.174999999999999933e-01

-1.100000000000000006e-01

-1.000000000000000056e-01

-9.249999999999999889e-02

-8.500000000000000611e-02

-7.499999999999999722e-02

-6.500000000000000222e-02

-5.500000000000000028e-02

-4.250000000000000305e-02

-2.999999999999999889e-02

-2.000000000000000042e-02

0.000000000000000000e+00

1.499999999999999944e-02

2.500000000000000139e-02

3.749999999999999861e-02

5.249999999999999806e-02

7.000000000000000666e-02

8.250000000000000389e-02

1.024999999999999939e-01

1.199999999999999956e-01

1.350000000000000089e-01

1.575000000000000011e-01

1.749999999999999889e-01

1.925000000000000044e-01

2.025000000000000133e-01

2.174999999999999989e-01

2.225000000000000033e-01

2.300000000000000100e-01

2.374999999999999889e-01

2.399999999999999911e-01

2.474999999999999978e-01

2.575000000000000067e-01

2.725000000000000200e-01

2.775000000000000244e-01

2.824999999999999734e-01

2.849999999999999756e-01

2.849999999999999756e-01

2.824999999999999734e-01

2.849999999999999756e-01

2.849999999999999756e-01

2.899999999999999800e-01

2.849999999999999756e-01

2.824999999999999734e-01

2.824999999999999734e-01

2.750000000000000222e-01

2.675000000000000155e-01

2.675000000000000155e-01

2.675000000000000155e-01

2.650000000000000133e-01

2.650000000000000133e-01

2.675000000000000155e-01

2.675000000000000155e-01

2.675000000000000155e-01

2.675000000000000155e-01

2.675000000000000155e-01

2.675000000000000155e-01

2.675000000000000155e-01

2.750000000000000222e-01

2.824999999999999734e-01

2.849999999999999756e-01

2.849999999999999756e-01

2.899999999999999800e-01

2.849999999999999756e-01

2.924999999999999822e-01

3.024999999999999911e-01

3.275000000000000133e-01

3.474999999999999756e-01

3.599999999999999867e-01

3.775000000000000022e-01

3.850000000000000089e-01

3.925000000000000155e-01

4.050000000000000266e-01

4.124999999999999778e-01

4.274999999999999911e-01

4.500000000000000111e-01

4.874999999999999889e-01

5.200000000000000178e-01

5.400000000000000355e-01

5.424999999999999822e-01

5.374999999999999778e-01

5.200000000000000178e-01

4.924999999999999933e-01

4.550000000000000155e-01

4.224999999999999867e-01

4.025000000000000244e-01

3.850000000000000089e-01

3.649999999999999911e-01

3.275000000000000133e-01

2.849999999999999756e-01

2.474999999999999978e-01

2.275000000000000078e-01

2.200000000000000011e-01

2.200000000000000011e-01

2.200000000000000011e-01

2.300000000000000100e-01

2.349999999999999867e-01

2.374999999999999889e-01

2.349999999999999867e-01

2.349999999999999867e-01

2.349999999999999867e-01

2.399999999999999911e-01

2.399999999999999911e-01

2.374999999999999889e-01

2.349999999999999867e-01

2.225000000000000033e-01

2.099999999999999922e-01

1.925000000000000044e-01

1.724999999999999867e-01

1.749999999999999889e-01

2.124999999999999944e-01

2.675000000000000155e-01

3.375000000000000222e-01

4.575000000000000178e-01

6.400000000000000133e-01

8.824999999999999512e-01

1.179999999999999938e+00

1.432500000000000107e+00

1.612500000000000044e+00

1.767500000000000071e+00

1.972499999999999920e+00

2.180000000000000160e+00

2.270000000000000018e+00

2.132499999999999840e+00

1.757500000000000062e+00

1.229999999999999982e+00

6.949999999999999512e-01

2.550000000000000044e-01

-3.749999999999999861e-02

-1.799999999999999933e-01

-2.225000000000000033e-01

-2.124999999999999944e-01

-1.849999999999999978e-01

-1.675000000000000100e-01

-1.575000000000000011e-01

-1.549999999999999989e-01

-1.524999999999999967e-01

-1.474999999999999922e-01

-1.524999999999999967e-01

-1.400000000000000133e-01

-1.350000000000000089e-01

-1.350000000000000089e-01

-1.375000000000000111e-01

-1.350000000000000089e-01

-1.275000000000000022e-01

-1.250000000000000000e-01

-1.174999999999999933e-01

-1.100000000000000006e-01

-1.074999999999999983e-01

-1.024999999999999939e-01

-1.100000000000000006e-01

-1.074999999999999983e-01

-1.024999999999999939e-01

-9.750000000000000333e-02

-9.249999999999999889e-02

-8.500000000000000611e-02

-8.500000000000000611e-02

-8.500000000000000611e-02

-7.499999999999999722e-02

-7.000000000000000666e-02

-5.500000000000000028e-02

-4.750000000000000056e-02

-3.749999999999999861e-02

-2.999999999999999889e-02

-2.000000000000000042e-02

2.500000000000000052e-03

1.750000000000000167e-02

2.750000000000000014e-02

4.250000000000000305e-02

5.500000000000000028e-02

7.249999999999999500e-02

8.250000000000000389e-02

1.000000000000000056e-01

1.100000000000000006e-01

1.300000000000000044e-01

1.400000000000000133e-01

1.625000000000000056e-01

1.799999999999999933e-01

1.925000000000000044e-01

2.025000000000000133e-01

2.124999999999999944e-01

2.200000000000000011e-01

2.349999999999999867e-01

2.474999999999999978e-01

2.550000000000000044e-01

2.650000000000000133e-01

2.725000000000000200e-01

2.775000000000000244e-01

2.824999999999999734e-01

2.849999999999999756e-01

2.849999999999999756e-01

2.824999999999999734e-01

2.775000000000000244e-01

2.775000000000000244e-01

2.725000000000000200e-01

2.725000000000000200e-01

2.650000000000000133e-01

2.625000000000000111e-01

2.575000000000000067e-01

2.625000000000000111e-01

2.575000000000000067e-01

2.550000000000000044e-01

2.500000000000000000e-01

2.449999999999999956e-01

2.399999999999999911e-01

2.374999999999999889e-01

2.349999999999999867e-01

2.349999999999999867e-01

2.374999999999999889e-01

2.374999999999999889e-01

2.399999999999999911e-01

2.399999999999999911e-01

2.449999999999999956e-01

2.449999999999999956e-01

2.449999999999999956e-01

2.474999999999999978e-01

2.550000000000000044e-01

2.675000000000000155e-01

2.775000000000000244e-01

2.924999999999999822e-01

3.099999999999999978e-01

3.300000000000000155e-01

3.549999999999999822e-01

3.674999999999999933e-01

3.775000000000000022e-01

3.850000000000000089e-01

4.000000000000000222e-01

4.050000000000000266e-01

4.149999999999999800e-01

4.400000000000000022e-01

4.699999999999999734e-01

5.050000000000000044e-01

5.324999999999999734e-01

5.374999999999999778e-01

5.300000000000000266e-01

5.124999999999999556e-01

4.774999999999999800e-01

4.400000000000000022e-01

4.124999999999999778e-01

3.950000000000000178e-01

3.775000000000000022e-01

3.574999999999999845e-01

3.200000000000000067e-01

2.775000000000000244e-01

2.399999999999999911e-01

2.200000000000000011e-01

2.124999999999999944e-01

2.124999999999999944e-01

2.124999999999999944e-01

2.174999999999999989e-01

2.174999999999999989e-01

2.174999999999999989e-01

2.174999999999999989e-01

2.124999999999999944e-01

2.124999999999999944e-01

2.124999999999999944e-01

2.099999999999999922e-01

2.099999999999999922e-01

2.099999999999999922e-01

2.074999999999999900e-01

2.000000000000000111e-01

1.824999999999999956e-01

1.575000000000000011e-01

1.474999999999999922e-01

1.799999999999999933e-01

2.349999999999999867e-01

3.024999999999999911e-01

4.224999999999999867e-01

6.049999999999999822e-01

8.549999999999999822e-01

1.147499999999999964e+00

1.409999999999999920e+00

1.594999999999999973e+00

1.757500000000000062e+00

1.962499999999999911e+00

2.169999999999999929e+00

2.265000000000000124e+00

2.134999999999999787e+00

1.767500000000000071e+00

1.247500000000000053e+00

7.075000000000000178e-01

2.625000000000000111e-01

-4.250000000000000305e-02

-1.900000000000000022e-01

-2.374999999999999889e-01

-2.275000000000000078e-01

-2.025000000000000133e-01

-1.824999999999999956e-01

-1.675000000000000100e-01

-1.575000000000000011e-01

-1.549999999999999989e-01

-1.575000000000000011e-01

-1.675000000000000100e-01

-1.625000000000000056e-01

-1.549999999999999989e-01

-1.524999999999999967e-01

-1.400000000000000133e-01

-1.300000000000000044e-01

-1.250000000000000000e-01

-1.199999999999999956e-01

-1.174999999999999933e-01

-1.100000000000000006e-01

-1.074999999999999983e-01

-1.024999999999999939e-01

-1.024999999999999939e-01

-1.000000000000000056e-01

-9.750000000000000333e-02

-8.999999999999999667e-02

-8.500000000000000611e-02

-8.999999999999999667e-02

-8.999999999999999667e-02

-8.999999999999999667e-02

-8.500000000000000611e-02

-7.499999999999999722e-02

-6.500000000000000222e-02

-5.500000000000000028e-02

-4.750000000000000056e-02

-4.499999999999999833e-02

-3.500000000000000333e-02

-2.000000000000000042e-02

7.499999999999999722e-03

1.750000000000000167e-02

2.999999999999999889e-02

4.250000000000000305e-02

5.500000000000000028e-02

6.500000000000000222e-02

8.250000000000000389e-02

9.750000000000000333e-02

1.125000000000000028e-01

1.275000000000000022e-01

1.474999999999999922e-01

1.625000000000000056e-01

1.799999999999999933e-01

1.925000000000000044e-01

2.025000000000000133e-01

2.174999999999999989e-01

2.275000000000000078e-01

2.349999999999999867e-01

2.399999999999999911e-01

2.399999999999999911e-01

2.449999999999999956e-01

2.500000000000000000e-01

2.575000000000000067e-01

2.650000000000000133e-01

2.725000000000000200e-01

2.725000000000000200e-01

2.675000000000000155e-01

2.725000000000000200e-01

2.725000000000000200e-01

2.725000000000000200e-01

2.675000000000000155e-01

2.675000000000000155e-01

2.625000000000000111e-01

2.625000000000000111e-01

2.575000000000000067e-01

2.575000000000000067e-01

2.500000000000000000e-01

2.474999999999999978e-01

2.399999999999999911e-01

2.374999999999999889e-01

2.374999999999999889e-01

2.399999999999999911e-01

2.449999999999999956e-01

2.449999999999999956e-01

2.449999999999999956e-01

2.449999999999999956e-01

2.449999999999999956e-01

2.449999999999999956e-01

2.474999999999999978e-01

2.474999999999999978e-01

2.500000000000000000e-01

2.575000000000000067e-01

2.725000000000000200e-01

2.824999999999999734e-01

3.024999999999999911e-01

3.275000000000000133e-01

3.449999999999999734e-01

3.549999999999999822e-01

3.649999999999999911e-01

3.775000000000000022e-01

3.850000000000000089e-01

3.950000000000000178e-01

4.050000000000000266e-01

4.299999999999999933e-01

4.675000000000000266e-01

5.050000000000000044e-01

5.324999999999999734e-01

5.424999999999999822e-01

5.324999999999999734e-01

5.150000000000000133e-01

4.824999999999999845e-01

4.475000000000000089e-01

4.149999999999999800e-01

4.050000000000000266e-01

3.925000000000000155e-01

3.674999999999999933e-01

3.300000000000000155e-01

2.899999999999999800e-01

2.474999999999999978e-01

2.225000000000000033e-01

2.174999999999999989e-01

2.174999999999999989e-01

2.174999999999999989e-01

2.225000000000000033e-01

2.300000000000000100e-01

2.275000000000000078e-01

2.225000000000000033e-01

2.225000000000000033e-01

2.275000000000000078e-01

2.225000000000000033e-01

2.275000000000000078e-01

2.200000000000000011e-01

2.174999999999999989e-01

2.124999999999999944e-01

2.025000000000000133e-01

1.900000000000000022e-01

1.724999999999999867e-01

1.675000000000000100e-01

2.025000000000000133e-01

2.550000000000000044e-01

3.225000000000000089e-01

4.400000000000000022e-01

6.250000000000000000e-01

8.774999999999999467e-01

1.169999999999999929e+00

1.429999999999999938e+00

1.610000000000000098e+00

1.760000000000000009e+00

1.959999999999999964e+00

2.169999999999999929e+00

2.270000000000000018e+00

2.142500000000000071e+00

1.774999999999999911e+00

1.257500000000000062e+00

7.175000000000000266e-01

2.725000000000000200e-01

-2.999999999999999889e-02

-1.824999999999999956e-01

-2.349999999999999867e-01

-2.225000000000000033e-01

-1.950000000000000067e-01

-1.749999999999999889e-01

-1.650000000000000078e-01

-1.549999999999999989e-01

-1.524999999999999967e-01

-1.524999999999999967e-01

-1.524999999999999967e-01

-1.449999999999999900e-01

-1.449999999999999900e-01

-1.400000000000000133e-01

-1.375000000000000111e-01

-1.275000000000000022e-01

-1.199999999999999956e-01

-1.100000000000000006e-01

-1.100000000000000006e-01

-1.074999999999999983e-01

-1.000000000000000056e-01

-9.750000000000000333e-02

-1.000000000000000056e-01

-9.249999999999999889e-02

-8.999999999999999667e-02

-8.999999999999999667e-02

-8.250000000000000389e-02

-7.249999999999999500e-02

-6.250000000000000000e-02

-5.750000000000000250e-02

-5.500000000000000028e-02

-5.249999999999999806e-02

-4.499999999999999833e-02

-3.749999999999999861e-02

-2.999999999999999889e-02

-2.750000000000000014e-02

-2.000000000000000042e-02

0.000000000000000000e+00

1.499999999999999944e-02

2.000000000000000042e-02

3.500000000000000333e-02

4.499999999999999833e-02

5.750000000000000250e-02

6.500000000000000222e-02

8.250000000000000389e-02

1.000000000000000056e-01

1.199999999999999956e-01

1.400000000000000133e-01

1.549999999999999989e-01

1.749999999999999889e-01

1.900000000000000022e-01

2.074999999999999900e-01

2.200000000000000011e-01

2.349999999999999867e-01

2.449999999999999956e-01

2.500000000000000000e-01

2.550000000000000044e-01

2.575000000000000067e-01

2.575000000000000067e-01

2.625000000000000111e-01

2.625000000000000111e-01

2.725000000000000200e-01

2.750000000000000222e-01

2.824999999999999734e-01

2.849999999999999756e-01

2.849999999999999756e-01

2.750000000000000222e-01

2.675000000000000155e-01

2.575000000000000067e-01

2.474999999999999978e-01

2.449999999999999956e-01

2.449999999999999956e-01

2.449999999999999956e-01

2.399999999999999911e-01

2.300000000000000100e-01

2.349999999999999867e-01

2.300000000000000100e-01

2.225000000000000033e-01

2.174999999999999989e-01

2.174999999999999989e-01

2.174999999999999989e-01

2.174999999999999989e-01

2.200000000000000011e-01

2.200000000000000011e-01

2.225000000000000033e-01

2.225000000000000033e-01

2.300000000000000100e-01

2.300000000000000100e-01

2.349999999999999867e-01

2.399999999999999911e-01

2.474999999999999978e-01

2.625000000000000111e-01

2.824999999999999734e-01

3.049999999999999933e-01

3.275000000000000133e-01

3.449999999999999734e-01

3.549999999999999822e-01

3.599999999999999867e-01

3.674999999999999933e-01

3.750000000000000000e-01

3.850000000000000089e-01

4.124999999999999778e-01

4.550000000000000155e-01

4.924999999999999933e-01

5.224999999999999645e-01

5.300000000000000266e-01

5.200000000000000178e-01

5.024999999999999467e-01

4.699999999999999734e-01

4.324999999999999956e-01

4.025000000000000244e-01

3.850000000000000089e-01

3.750000000000000000e-01

3.549999999999999822e-01

3.300000000000000155e-01

2.899999999999999800e-01

2.399999999999999911e-01

2.200000000000000011e-01

2.000000000000000111e-01

1.900000000000000022e-01

1.900000000000000022e-01

1.900000000000000022e-01

1.925000000000000044e-01

1.900000000000000022e-01

1.925000000000000044e-01

2.025000000000000133e-01

2.124999999999999944e-01

2.200000000000000011e-01

2.225000000000000033e-01

2.225000000000000033e-01

2.225000000000000033e-01

2.200000000000000011e-01

2.174999999999999989e-01

2.074999999999999900e-01

1.849999999999999978e-01

1.824999999999999956e-01

2.124999999999999944e-01

2.575000000000000067e-01

3.200000000000000067e-01

4.425000000000000044e-01

6.324999999999999512e-01

8.800000000000000044e-01

1.172500000000000098e+00

1.417499999999999982e+00

1.584999999999999964e+00

1.739999999999999991e+00

1.949999999999999956e+00

2.160000000000000142e+00

2.254999999999999893e+00

2.115000000000000213e+00

1.747500000000000053e+00

1.219999999999999973e+00

6.899999999999999467e-01

2.500000000000000000e-01

-4.750000000000000056e-02

-2.124999999999999944e-01

-2.750000000000000222e-01

-2.725000000000000200e-01

-2.500000000000000000e-01

-2.275000000000000078e-01

-2.124999999999999944e-01

-1.925000000000000044e-01

-1.849999999999999978e-01

-1.849999999999999978e-01

-1.824999999999999956e-01

-1.749999999999999889e-01

-1.724999999999999867e-01

-1.650000000000000078e-01

-1.625000000000000056e-01

-1.625000000000000056e-01

-1.650000000000000078e-01

-1.650000000000000078e-01

-1.650000000000000078e-01

-1.575000000000000011e-01

-1.524999999999999967e-01

-1.524999999999999967e-01

-1.524999999999999967e-01

-1.449999999999999900e-01

-1.350000000000000089e-01

-1.275000000000000022e-01

-1.275000000000000022e-01

-1.350000000000000089e-01

-1.400000000000000133e-01

-1.524999999999999967e-01

-1.549999999999999989e-01

-1.549999999999999989e-01

-1.524999999999999967e-01

-1.474999999999999922e-01

-1.375000000000000111e-01

-1.250000000000000000e-01

-1.024999999999999939e-01

-8.500000000000000611e-02

-7.000000000000000666e-02

-5.750000000000000250e-02

-5.249999999999999806e-02

-3.500000000000000333e-02

-2.000000000000000042e-02

-1.499999999999999944e-02

0.000000000000000000e+00

0.000000000000000000e+00

0.000000000000000000e+00

1.499999999999999944e-02

3.500000000000000333e-02

5.500000000000000028e-02

7.000000000000000666e-02

8.250000000000000389e-02

1.000000000000000056e-01

1.250000000000000000e-01

1.400000000000000133e-01

1.549999999999999989e-01

1.575000000000000011e-01

1.625000000000000056e-01

1.724999999999999867e-01

1.849999999999999978e-01

1.925000000000000044e-01

1.950000000000000067e-01

1.849999999999999978e-01

1.724999999999999867e-01

1.625000000000000056e-01

1.650000000000000078e-01

1.675000000000000100e-01

1.799999999999999933e-01

1.824999999999999956e-01

1.849999999999999978e-01

1.749999999999999889e-01

1.650000000000000078e-01

1.625000000000000056e-01

1.575000000000000011e-01

1.625000000000000056e-01

1.575000000000000011e-01

1.549999999999999989e-01

1.449999999999999900e-01

1.350000000000000089e-01

1.300000000000000044e-01

1.400000000000000133e-01

1.524999999999999967e-01

1.625000000000000056e-01

1.575000000000000011e-01

1.449999999999999900e-01

1.300000000000000044e-01

1.275000000000000022e-01

1.350000000000000089e-01

1.375000000000000111e-01

1.375000000000000111e-01

1.350000000000000089e-01

1.449999999999999900e-01

1.749999999999999889e-01

2.074999999999999900e-01

2.275000000000000078e-01

2.399999999999999911e-01

2.449999999999999956e-01

2.675000000000000155e-01

2.949999999999999845e-01

3.175000000000000044e-01

3.225000000000000089e-01

3.300000000000000155e-01

3.549999999999999822e-01

3.775000000000000022e-01

4.025000000000000244e-01

4.124999999999999778e-01

4.025000000000000244e-01

3.875000000000000111e-01

3.599999999999999867e-01

3.300000000000000155e-01

3.024999999999999911e-01

2.849999999999999756e-01

2.650000000000000133e-01

2.399999999999999911e-01

2.000000000000000111e-01

1.575000000000000011e-01

1.199999999999999956e-01

1.074999999999999983e-01

1.074999999999999983e-01

1.100000000000000006e-01

1.100000000000000006e-01

1.125000000000000028e-01

1.174999999999999933e-01

1.100000000000000006e-01

1.074999999999999983e-01

1.074999999999999983e-01

1.074999999999999983e-01

1.074999999999999983e-01

1.074999999999999983e-01

1.074999999999999983e-01

1.125000000000000028e-01

1.100000000000000006e-01

1.000000000000000056e-01

7.249999999999999500e-02

4.250000000000000305e-02

5.249999999999999806e-02

1.000000000000000056e-01

1.650000000000000078e-01

2.550000000000000044e-01

4.149999999999999800e-01

6.225000000000000533e-01

8.774999999999999467e-01

1.157499999999999973e+00

1.375000000000000000e+00

1.512499999999999956e+00

1.669999999999999929e+00

1.877499999999999947e+00

2.082500000000000018e+00

2.154999999999999805e+00

1.979999999999999982e+00

1.560000000000000053e+00

1.007500000000000062e+00

4.849999999999999867e-01

8.250000000000000389e-02

-1.849999999999999978e-01

-3.024999999999999911e-01

-3.275000000000000133e-01

-2.949999999999999845e-01

-2.675000000000000155e-01

-2.575000000000000067e-01

-2.575000000000000067e-01

-2.575000000000000067e-01

-2.625000000000000111e-01

-2.650000000000000133e-01

-2.675000000000000155e-01

-2.650000000000000133e-01

-2.625000000000000111e-01

-2.550000000000000044e-01

-2.500000000000000000e-01

-2.449999999999999956e-01

-2.300000000000000100e-01

-2.174999999999999989e-01

-2.025000000000000133e-01

-1.950000000000000067e-01

-1.925000000000000044e-01

-2.000000000000000111e-01

-2.099999999999999922e-01

-2.174999999999999989e-01

-2.174999999999999989e-01

-2.124999999999999944e-01

-2.025000000000000133e-01

-1.950000000000000067e-01

-1.849999999999999978e-01

-1.824999999999999956e-01

-1.799999999999999933e-01

-1.799999999999999933e-01

-1.724999999999999867e-01

-1.675000000000000100e-01

-1.650000000000000078e-01

-1.549999999999999989e-01

-1.549999999999999989e-01

-1.524999999999999967e-01

-1.400000000000000133e-01

-1.350000000000000089e-01

-1.199999999999999956e-01

-1.024999999999999939e-01

-8.000000000000000167e-02

-5.500000000000000028e-02

-3.500000000000000333e-02

-2.000000000000000042e-02

7.499999999999999722e-03

2.000000000000000042e-02

3.500000000000000333e-02

5.500000000000000028e-02

7.499999999999999722e-02

8.500000000000000611e-02

1.000000000000000056e-01

1.199999999999999956e-01

1.350000000000000089e-01

1.449999999999999900e-01

1.575000000000000011e-01

1.749999999999999889e-01

1.824999999999999956e-01

1.849999999999999978e-01

1.849999999999999978e-01

1.925000000000000044e-01

2.074999999999999900e-01

2.200000000000000011e-01

2.275000000000000078e-01

2.275000000000000078e-01

2.300000000000000100e-01

2.300000000000000100e-01

2.275000000000000078e-01

2.124999999999999944e-01

2.000000000000000111e-01

1.925000000000000044e-01

1.900000000000000022e-01

1.849999999999999978e-01

1.849999999999999978e-01

1.824999999999999956e-01

1.824999999999999956e-01

1.849999999999999978e-01

1.824999999999999956e-01

1.799999999999999933e-01

1.824999999999999956e-01

1.849999999999999978e-01

1.900000000000000022e-01

1.900000000000000022e-01

1.925000000000000044e-01

1.950000000000000067e-01

2.000000000000000111e-01

2.025000000000000133e-01

2.099999999999999922e-01

2.174999999999999989e-01

2.399999999999999911e-01

2.625000000000000111e-01

2.824999999999999734e-01

2.999999999999999889e-01

3.125000000000000000e-01

3.225000000000000089e-01

3.375000000000000222e-01

3.474999999999999756e-01

3.574999999999999845e-01

3.674999999999999933e-01

3.750000000000000000e-01

3.925000000000000155e-01

4.124999999999999778e-01

4.425000000000000044e-01

4.650000000000000244e-01

4.774999999999999800e-01

4.749999999999999778e-01

4.650000000000000244e-01

4.400000000000000022e-01

4.025000000000000244e-01

3.724999999999999978e-01

3.549999999999999822e-01

3.474999999999999756e-01

3.325000000000000178e-01

3.049999999999999933e-01

2.675000000000000155e-01

2.349999999999999867e-01

2.099999999999999922e-01

1.925000000000000044e-01

1.849999999999999978e-01

1.900000000000000022e-01

1.950000000000000067e-01

2.025000000000000133e-01

2.124999999999999944e-01

2.225000000000000033e-01

2.300000000000000100e-01

2.374999999999999889e-01

2.374999999999999889e-01

2.349999999999999867e-01

2.300000000000000100e-01

2.275000000000000078e-01

2.200000000000000011e-01

2.174999999999999989e-01

2.099999999999999922e-01

2.025000000000000133e-01

2.099999999999999922e-01

2.349999999999999867e-01

2.750000000000000222e-01

3.400000000000000244e-01

4.874999999999999889e-01

7.075000000000000178e-01

9.825000000000000400e-01

1.272499999999999964e+00

1.487500000000000044e+00

1.625000000000000000e+00

1.760000000000000009e+00

1.967500000000000027e+00

2.187500000000000000e+00

2.274999999999999911e+00

2.120000000000000107e+00

1.725000000000000089e+00

1.179999999999999938e+00

6.424999999999999600e-01

2.300000000000000100e-01

-2.500000000000000139e-02

-1.350000000000000089e-01

-1.575000000000000011e-01

-1.549999999999999989e-01

-1.474999999999999922e-01

-1.524999999999999967e-01

-1.549999999999999989e-01

-1.449999999999999900e-01

-1.300000000000000044e-01

-1.300000000000000044e-01

-1.400000000000000133e-01

-1.575000000000000011e-01

-1.675000000000000100e-01

-1.724999999999999867e-01

-1.625000000000000056e-01

-1.474999999999999922e-01

-1.400000000000000133e-01

-1.524999999999999967e-01

-1.675000000000000100e-01

-1.900000000000000022e-01

-2.025000000000000133e-01

-2.025000000000000133e-01

-1.900000000000000022e-01

-1.724999999999999867e-01

-1.524999999999999967e-01

-1.350000000000000089e-01

-1.300000000000000044e-01

-1.350000000000000089e-01

-1.449999999999999900e-01

-1.575000000000000011e-01

-1.625000000000000056e-01

-1.549999999999999989e-01

-1.524999999999999967e-01

-1.524999999999999967e-01

-1.549999999999999989e-01

-1.400000000000000133e-01

-1.250000000000000000e-01

-8.999999999999999667e-02

-5.249999999999999806e-02

-2.750000000000000014e-02

-2.500000000000000139e-02

-4.750000000000000056e-02

-8.250000000000000389e-02

-9.750000000000000333e-02

-7.249999999999999500e-02

-2.500000000000000139e-02

2.500000000000000139e-02

4.499999999999999833e-02

3.749999999999999861e-02

2.750000000000000014e-02

2.500000000000000139e-02

4.250000000000000305e-02

7.000000000000000666e-02

1.024999999999999939e-01

1.300000000000000044e-01

1.524999999999999967e-01

1.724999999999999867e-01

1.925000000000000044e-01

2.124999999999999944e-01

2.124999999999999944e-01

2.000000000000000111e-01

1.675000000000000100e-01

1.575000000000000011e-01

1.575000000000000011e-01

1.625000000000000056e-01

1.799999999999999933e-01

1.925000000000000044e-01

2.025000000000000133e-01

2.025000000000000133e-01

1.849999999999999978e-01

1.675000000000000100e-01

1.400000000000000133e-01

1.250000000000000000e-01

1.174999999999999933e-01

1.275000000000000022e-01

1.524999999999999967e-01

1.724999999999999867e-01

1.824999999999999956e-01

1.849999999999999978e-01

1.799999999999999933e-01

1.749999999999999889e-01

1.575000000000000011e-01

1.350000000000000089e-01

1.125000000000000028e-01

1.100000000000000006e-01

1.250000000000000000e-01

1.400000000000000133e-01

1.549999999999999989e-01

1.524999999999999967e-01

1.474999999999999922e-01

1.474999999999999922e-01

1.675000000000000100e-01

1.950000000000000067e-01

2.200000000000000011e-01

2.349999999999999867e-01

2.374999999999999889e-01

2.374999999999999889e-01

2.374999999999999889e-01

2.449999999999999956e-01

2.625000000000000111e-01

2.775000000000000244e-01

3.099999999999999978e-01

3.574999999999999845e-01

4.025000000000000244e-01

4.299999999999999933e-01

4.500000000000000111e-01

4.550000000000000155e-01

4.425000000000000044e-01

4.149999999999999800e-01

3.724999999999999978e-01

3.300000000000000155e-01

3.024999999999999911e-01

2.899999999999999800e-01

2.675000000000000155e-01

2.300000000000000100e-01

1.799999999999999933e-01

1.449999999999999900e-01

1.250000000000000000e-01

1.199999999999999956e-01

1.300000000000000044e-01

1.400000000000000133e-01

1.524999999999999967e-01

1.625000000000000056e-01

1.650000000000000078e-01

1.724999999999999867e-01

1.724999999999999867e-01

1.724999999999999867e-01

1.724999999999999867e-01

1.724999999999999867e-01

1.724999999999999867e-01

1.749999999999999889e-01

1.799999999999999933e-01

1.824999999999999956e-01

1.824999999999999956e-01

1.824999999999999956e-01

2.025000000000000133e-01

2.500000000000000000e-01

3.024999999999999911e-01

3.775000000000000022e-01

5.200000000000000178e-01

7.299999999999999822e-01

9.899999999999999911e-01

1.272499999999999964e+00

1.485000000000000098e+00

1.622500000000000053e+00

1.777500000000000080e+00

2.007499999999999840e+00

2.242500000000000160e+00

2.325000000000000178e+00

2.145000000000000018e+00

1.722499999999999920e+00

1.165000000000000036e+00

6.324999999999999512e-01

2.300000000000000100e-01

-2.750000000000000014e-02

-1.474999999999999922e-01

-1.824999999999999956e-01

-1.675000000000000100e-01

-1.474999999999999922e-01

-1.375000000000000111e-01

-1.300000000000000044e-01

-1.199999999999999956e-01

-1.074999999999999983e-01

-1.074999999999999983e-01

-1.074999999999999983e-01

-1.074999999999999983e-01

-1.024999999999999939e-01

-1.024999999999999939e-01

-9.750000000000000333e-02

-8.999999999999999667e-02

-8.500000000000000611e-02

-8.500000000000000611e-02

-8.250000000000000389e-02

-8.000000000000000167e-02

-7.000000000000000666e-02

-7.000000000000000666e-02

-6.500000000000000222e-02

-5.750000000000000250e-02

-4.250000000000000305e-02

-2.750000000000000014e-02

-1.750000000000000167e-02

-1.750000000000000167e-02

-2.500000000000000139e-02

-3.500000000000000333e-02

-3.749999999999999861e-02

-3.749999999999999861e-02

-4.250000000000000305e-02

-4.499999999999999833e-02

-5.500000000000000028e-02

-6.250000000000000000e-02

-5.750000000000000250e-02

-4.499999999999999833e-02

-2.999999999999999889e-02

-1.499999999999999944e-02

1.000000000000000021e-02

2.999999999999999889e-02

5.249999999999999806e-02

7.000000000000000666e-02

8.999999999999999667e-02

1.100000000000000006e-01

1.300000000000000044e-01

1.474999999999999922e-01

1.625000000000000056e-01

1.749999999999999889e-01

1.900000000000000022e-01

1.950000000000000067e-01

2.074999999999999900e-01

2.275000000000000078e-01

2.449999999999999956e-01

2.675000000000000155e-01

2.899999999999999800e-01

2.999999999999999889e-01

3.125000000000000000e-01

3.225000000000000089e-01

3.300000000000000155e-01

3.375000000000000222e-01

3.400000000000000244e-01

3.449999999999999734e-01

3.449999999999999734e-01

3.375000000000000222e-01

3.300000000000000155e-01

3.200000000000000067e-01

3.125000000000000000e-01

3.049999999999999933e-01

3.049999999999999933e-01

3.049999999999999933e-01

2.999999999999999889e-01

2.849999999999999756e-01

2.824999999999999734e-01

2.725000000000000200e-01

2.750000000000000222e-01

2.750000000000000222e-01

2.750000000000000222e-01

2.725000000000000200e-01

2.775000000000000244e-01

2.849999999999999756e-01

2.824999999999999734e-01

2.824999999999999734e-01

2.775000000000000244e-01

2.899999999999999800e-01

2.949999999999999845e-01

2.999999999999999889e-01

2.999999999999999889e-01

3.024999999999999911e-01

3.125000000000000000e-01

3.325000000000000178e-01

3.599999999999999867e-01

3.850000000000000089e-01

4.025000000000000244e-01

4.124999999999999778e-01

4.199999999999999845e-01

4.274999999999999911e-01

4.375000000000000000e-01

4.575000000000000178e-01

4.849999999999999867e-01

5.150000000000000133e-01

5.424999999999999822e-01

5.600000000000000533e-01

5.649999999999999467e-01

5.600000000000000533e-01

5.424999999999999822e-01

5.050000000000000044e-01

4.650000000000000244e-01

4.324999999999999956e-01

4.099999999999999756e-01

3.925000000000000155e-01

3.599999999999999867e-01

3.200000000000000067e-01

2.725000000000000200e-01

2.349999999999999867e-01

2.225000000000000033e-01

2.200000000000000011e-01

2.225000000000000033e-01

2.275000000000000078e-01

2.374999999999999889e-01

2.449999999999999956e-01

2.500000000000000000e-01

2.449999999999999956e-01

2.449999999999999956e-01

2.399999999999999911e-01

2.374999999999999889e-01

2.399999999999999911e-01

2.399999999999999911e-01

2.399999999999999911e-01

2.449999999999999956e-01

2.374999999999999889e-01

2.174999999999999989e-01

2.099999999999999922e-01

2.300000000000000100e-01

2.824999999999999734e-01

3.400000000000000244e-01

4.274999999999999911e-01

5.749999999999999556e-01

7.800000000000000266e-01

1.047500000000000098e+00

1.330000000000000071e+00

1.540000000000000036e+00

1.697500000000000009e+00

1.887499999999999956e+00

2.132499999999999840e+00

2.319999999999999840e+00

2.312500000000000000e+00

2.037500000000000089e+00

1.550000000000000044e+00

9.799999999999999822e-01

4.699999999999999734e-01

1.074999999999999983e-01

-1.174999999999999933e-01

-2.124999999999999944e-01

-2.275000000000000078e-01

-2.074999999999999900e-01

-1.849999999999999978e-01

-1.650000000000000078e-01

-1.449999999999999900e-01

-1.275000000000000022e-01

-1.250000000000000000e-01

-1.199999999999999956e-01

-1.174999999999999933e-01

-1.100000000000000006e-01

-1.024999999999999939e-01

-1.024999999999999939e-01

-1.024999999999999939e-01

-1.000000000000000056e-01

-1.000000000000000056e-01

-9.750000000000000333e-02

-1.000000000000000056e-01

-9.249999999999999889e-02

-8.500000000000000611e-02

-8.500000000000000611e-02

-8.999999999999999667e-02

-9.750000000000000333e-02

-1.000000000000000056e-01

-9.750000000000000333e-02

-9.249999999999999889e-02

-8.500000000000000611e-02

-8.000000000000000167e-02

-8.250000000000000389e-02

-8.250000000000000389e-02

-8.000000000000000167e-02

-7.249999999999999500e-02

-6.250000000000000000e-02

-5.249999999999999806e-02

-4.250000000000000305e-02

-3.500000000000000333e-02

-2.750000000000000014e-02

0.000000000000000000e+00

7.499999999999999722e-03

2.500000000000000139e-02

3.500000000000000333e-02

4.499999999999999833e-02

5.500000000000000028e-02

8.000000000000000167e-02

9.750000000000000333e-02

1.199999999999999956e-01

1.375000000000000111e-01

1.575000000000000011e-01

1.724999999999999867e-01

1.900000000000000022e-01

2.099999999999999922e-01

2.349999999999999867e-01

2.550000000000000044e-01

2.675000000000000155e-01

2.725000000000000200e-01

2.750000000000000222e-01

2.824999999999999734e-01

2.849999999999999756e-01

2.924999999999999822e-01

2.999999999999999889e-01

3.099999999999999978e-01

3.175000000000000044e-01

3.275000000000000133e-01

3.225000000000000089e-01

3.175000000000000044e-01

3.099999999999999978e-01

3.049999999999999933e-01

3.024999999999999911e-01

2.949999999999999845e-01

2.949999999999999845e-01

2.949999999999999845e-01

2.924999999999999822e-01

2.924999999999999822e-01

2.899999999999999800e-01

2.899999999999999800e-01

2.849999999999999756e-01

2.849999999999999756e-01

2.849999999999999756e-01

2.775000000000000244e-01

2.824999999999999734e-01

2.824999999999999734e-01

2.775000000000000244e-01

2.750000000000000222e-01

2.775000000000000244e-01

2.775000000000000244e-01

2.824999999999999734e-01

2.899999999999999800e-01

3.024999999999999911e-01

3.175000000000000044e-01

3.325000000000000178e-01

3.549999999999999822e-01

3.825000000000000067e-01

4.000000000000000222e-01

4.124999999999999778e-01

4.274999999999999911e-01

4.475000000000000089e-01

4.575000000000000178e-01

4.699999999999999734e-01

4.849999999999999867e-01

5.124999999999999556e-01

5.400000000000000355e-01

5.675000000000000044e-01

5.799999999999999600e-01

5.775000000000000133e-01

5.600000000000000533e-01

5.300000000000000266e-01

4.924999999999999933e-01

4.500000000000000111e-01

4.274999999999999911e-01

4.124999999999999778e-01

4.025000000000000244e-01

3.750000000000000000e-01

3.400000000000000244e-01

2.999999999999999889e-01

2.725000000000000200e-01

2.575000000000000067e-01

2.500000000000000000e-01

2.474999999999999978e-01

2.550000000000000044e-01

2.650000000000000133e-01

2.750000000000000222e-01

2.824999999999999734e-01

2.775000000000000244e-01

2.775000000000000244e-01

2.725000000000000200e-01

2.675000000000000155e-01

2.625000000000000111e-01

2.625000000000000111e-01

2.575000000000000067e-01

2.500000000000000000e-01

2.349999999999999867e-01

2.174999999999999989e-01

2.124999999999999944e-01

2.474999999999999978e-01

3.024999999999999911e-01

3.674999999999999933e-01

4.774999999999999800e-01

6.600000000000000311e-01

9.000000000000000222e-01

1.197500000000000009e+00

1.449999999999999956e+00

1.629999999999999893e+00

1.767500000000000071e+00

1.969999999999999973e+00

2.207500000000000018e+00

2.352500000000000036e+00

2.282500000000000195e+00

1.945000000000000062e+00

1.427499999999999991e+00

8.675000000000000488e-01

3.875000000000000111e-01

6.500000000000000222e-02

-1.174999999999999933e-01

-1.849999999999999978e-01

-1.824999999999999956e-01

-1.575000000000000011e-01

-1.375000000000000111e-01

-1.275000000000000022e-01

-1.199999999999999956e-01

-1.174999999999999933e-01

-1.100000000000000006e-01

-1.100000000000000006e-01

-1.024999999999999939e-01

-9.750000000000000333e-02

-8.999999999999999667e-02

-8.500000000000000611e-02

-7.499999999999999722e-02

-7.249999999999999500e-02

-7.249999999999999500e-02

-7.499999999999999722e-02

-7.499999999999999722e-02

-7.499999999999999722e-02

-7.000000000000000666e-02

-7.000000000000000666e-02

-7.000000000000000666e-02

-6.500000000000000222e-02

-6.250000000000000000e-02

-6.250000000000000000e-02

-7.000000000000000666e-02

-7.000000000000000666e-02

-7.000000000000000666e-02

-7.000000000000000666e-02

-6.250000000000000000e-02

-5.500000000000000028e-02

-4.499999999999999833e-02

-3.500000000000000333e-02

-2.500000000000000139e-02

-1.750000000000000167e-02

0.000000000000000000e+00

1.499999999999999944e-02

2.750000000000000014e-02

4.499999999999999833e-02

5.750000000000000250e-02

8.000000000000000167e-02

9.249999999999999889e-02

1.074999999999999983e-01

1.199999999999999956e-01

1.300000000000000044e-01

1.474999999999999922e-01

1.650000000000000078e-01

1.799999999999999933e-01

1.950000000000000067e-01

2.099999999999999922e-01

2.225000000000000033e-01

2.399999999999999911e-01

2.474999999999999978e-01

2.575000000000000067e-01

2.675000000000000155e-01

2.750000000000000222e-01

2.849999999999999756e-01

2.924999999999999822e-01

2.999999999999999889e-01

3.024999999999999911e-01

3.049999999999999933e-01

3.125000000000000000e-01

3.125000000000000000e-01

3.200000000000000067e-01

3.175000000000000044e-01

3.175000000000000044e-01

3.125000000000000000e-01

3.049999999999999933e-01

2.999999999999999889e-01

2.949999999999999845e-01

2.949999999999999845e-01

2.924999999999999822e-01

2.899999999999999800e-01

2.899999999999999800e-01

2.849999999999999756e-01

2.849999999999999756e-01

2.824999999999999734e-01

2.824999999999999734e-01

2.849999999999999756e-01

2.849999999999999756e-01

2.899999999999999800e-01

2.899999999999999800e-01

2.899999999999999800e-01

2.849999999999999756e-01

2.849999999999999756e-01

2.899999999999999800e-01

2.924999999999999822e-01

2.999999999999999889e-01

3.049999999999999933e-01

3.300000000000000155e-01

3.599999999999999867e-01

3.875000000000000111e-01

4.124999999999999778e-01

4.224999999999999867e-01

4.324999999999999956e-01

4.400000000000000022e-01

4.500000000000000111e-01

4.600000000000000200e-01

4.774999999999999800e-01

5.124999999999999556e-01

5.500000000000000444e-01

5.849999999999999645e-01

5.975000000000000311e-01

5.949999999999999734e-01

5.775000000000000133e-01

5.500000000000000444e-01

5.124999999999999556e-01

4.774999999999999800e-01

4.550000000000000155e-01

4.375000000000000000e-01

4.149999999999999800e-01

3.850000000000000089e-01

3.400000000000000244e-01

3.024999999999999911e-01

2.750000000000000222e-01

2.625000000000000111e-01

2.575000000000000067e-01

2.550000000000000044e-01

2.575000000000000067e-01

2.575000000000000067e-01

2.575000000000000067e-01

2.650000000000000133e-01

2.675000000000000155e-01

2.675000000000000155e-01

2.675000000000000155e-01

2.625000000000000111e-01

2.575000000000000067e-01

2.500000000000000000e-01

2.500000000000000000e-01

2.449999999999999956e-01

2.300000000000000100e-01

2.074999999999999900e-01

1.950000000000000067e-01

2.124999999999999944e-01

2.575000000000000067e-01

3.099999999999999978e-01

4.050000000000000266e-01

5.600000000000000533e-01

7.800000000000000266e-01

1.044999999999999929e+00

1.307500000000000107e+00

1.487500000000000044e+00

1.625000000000000000e+00

1.802499999999999991e+00

2.024999999999999911e+00

2.189999999999999947e+00

2.160000000000000142e+00

1.832500000000000018e+00

1.367499999999999938e+00

8.950000000000000178e-01

4.224999999999999867e-01

8.999999999999999667e-02

-1.100000000000000006e-01

-1.925000000000000044e-01

-1.925000000000000044e-01

-1.650000000000000078e-01

-1.449999999999999900e-01

-1.350000000000000089e-01

-1.250000000000000000e-01

-1.100000000000000006e-01

-1.125000000000000028e-01

-1.125000000000000028e-01

-1.100000000000000006e-01

-1.024999999999999939e-01

-9.750000000000000333e-02

-9.249999999999999889e-02

-8.999999999999999667e-02

-8.000000000000000167e-02

-7.249999999999999500e-02

-7.249999999999999500e-02

-7.000000000000000666e-02

-6.250000000000000000e-02

-6.250000000000000000e-02

-6.250000000000000000e-02

-5.500000000000000028e-02

-5.500000000000000028e-02

-5.249999999999999806e-02

-4.750000000000000056e-02

-4.499999999999999833e-02

-4.499999999999999833e-02

-4.250000000000000305e-02

-4.250000000000000305e-02

-3.749999999999999861e-02

-3.749999999999999861e-02

-2.750000000000000014e-02

-2.000000000000000042e-02

0.000000000000000000e+00

1.000000000000000021e-02

2.500000000000000139e-02

3.749999999999999861e-02

5.249999999999999806e-02

7.000000000000000666e-02

8.250000000000000389e-02

9.249999999999999889e-02

1.074999999999999983e-01

1.250000000000000000e-01

1.449999999999999900e-01

1.575000000000000011e-01

1.749999999999999889e-01

1.900000000000000022e-01

2.074999999999999900e-01

2.174999999999999989e-01

2.300000000000000100e-01

2.449999999999999956e-01

2.575000000000000067e-01

2.675000000000000155e-01

2.750000000000000222e-01

2.775000000000000244e-01

2.824999999999999734e-01

2.899999999999999800e-01

2.924999999999999822e-01

2.999999999999999889e-01

2.999999999999999889e-01

2.999999999999999889e-01

2.999999999999999889e-01

3.024999999999999911e-01

2.999999999999999889e-01

2.999999999999999889e-01

2.999999999999999889e-01

2.999999999999999889e-01

2.999999999999999889e-01

2.949999999999999845e-01

2.899999999999999800e-01

2.849999999999999756e-01

2.824999999999999734e-01

2.824999999999999734e-01

2.750000000000000222e-01

2.750000000000000222e-01

2.750000000000000222e-01

2.725000000000000200e-01

2.725000000000000200e-01

2.675000000000000155e-01

2.675000000000000155e-01

2.625000000000000111e-01

2.575000000000000067e-01

2.575000000000000067e-01

2.625000000000000111e-01

2.675000000000000155e-01

2.725000000000000200e-01

2.775000000000000244e-01

2.849999999999999756e-01

2.949999999999999845e-01

3.175000000000000044e-01

3.325000000000000178e-01

3.549999999999999822e-01

3.724999999999999978e-01

3.825000000000000067e-01

3.875000000000000111e-01

4.025000000000000244e-01

4.124999999999999778e-01

4.199999999999999845e-01

4.400000000000000022e-01

4.650000000000000244e-01

5.050000000000000044e-01

5.424999999999999822e-01

5.600000000000000533e-01

5.600000000000000533e-01

5.474999999999999867e-01

5.224999999999999645e-01

4.849999999999999867e-01

4.475000000000000089e-01

4.224999999999999867e-01

4.050000000000000266e-01

3.875000000000000111e-01

3.574999999999999845e-01

3.175000000000000044e-01

2.725000000000000200e-01

2.449999999999999956e-01

2.300000000000000100e-01

2.200000000000000011e-01

2.174999999999999989e-01

2.200000000000000011e-01

2.275000000000000078e-01

2.300000000000000100e-01

2.349999999999999867e-01

2.349999999999999867e-01

2.374999999999999889e-01

2.374999999999999889e-01

2.374999999999999889e-01

2.349999999999999867e-01

2.300000000000000100e-01

2.300000000000000100e-01

2.275000000000000078e-01

2.124999999999999944e-01

1.925000000000000044e-01

1.724999999999999867e-01

1.799999999999999933e-01

2.174999999999999989e-01

2.650000000000000133e-01

3.300000000000000155e-01

4.600000000000000200e-01

6.474999999999999645e-01

9.074999999999999734e-01

1.197500000000000009e+00

1.427499999999999991e+00

1.587499999999999911e+00

1.752499999999999947e+00

1.967500000000000027e+00

2.160000000000000142e+00

2.214999999999999858e+00

2.027499999999999858e+00

1.629999999999999893e+00

1.102500000000000036e+00

5.975000000000000311e-01

2.025000000000000133e-01

-5.500000000000000028e-02

-1.724999999999999867e-01

-2.074999999999999900e-01

-1.900000000000000022e-01

-1.650000000000000078e-01

-1.524999999999999967e-01

-1.375000000000000111e-01

-1.300000000000000044e-01

-1.250000000000000000e-01

-1.300000000000000044e-01

-1.300000000000000044e-01

-1.300000000000000044e-01

-1.300000000000000044e-01

-1.300000000000000044e-01

-1.250000000000000000e-01

-1.199999999999999956e-01

-1.100000000000000006e-01

-1.074999999999999983e-01

-1.000000000000000056e-01

-9.750000000000000333e-02

-9.249999999999999889e-02

-8.999999999999999667e-02

-8.500000000000000611e-02

-8.500000000000000611e-02

-8.250000000000000389e-02

-8.000000000000000167e-02

-7.499999999999999722e-02

-7.249999999999999500e-02

-7.000000000000000666e-02

-6.250000000000000000e-02

-5.500000000000000028e-02

-4.750000000000000056e-02

-4.250000000000000305e-02

-2.999999999999999889e-02

-2.750000000000000014e-02

-1.499999999999999944e-02

7.499999999999999722e-03

2.500000000000000139e-02

3.500000000000000333e-02

4.499999999999999833e-02

5.249999999999999806e-02

7.000000000000000666e-02

8.000000000000000167e-02

9.750000000000000333e-02

1.125000000000000028e-01

1.300000000000000044e-01

1.474999999999999922e-01

1.575000000000000011e-01

1.749999999999999889e-01

1.925000000000000044e-01

2.074999999999999900e-01

2.200000000000000011e-01

2.300000000000000100e-01

2.349999999999999867e-01

2.399999999999999911e-01

2.449999999999999956e-01

2.500000000000000000e-01

2.550000000000000044e-01

2.625000000000000111e-01

2.675000000000000155e-01

2.725000000000000200e-01

2.750000000000000222e-01

2.824999999999999734e-01

2.824999999999999734e-01

2.824999999999999734e-01

2.849999999999999756e-01

2.849999999999999756e-01

2.824999999999999734e-01

2.775000000000000244e-01

2.750000000000000222e-01

2.675000000000000155e-01

2.675000000000000155e-01

2.625000000000000111e-01

2.575000000000000067e-01

2.500000000000000000e-01

2.550000000000000044e-01

2.474999999999999978e-01

2.449999999999999956e-01

2.449999999999999956e-01

2.449999999999999956e-01

2.449999999999999956e-01

2.500000000000000000e-01

2.474999999999999978e-01

2.474999999999999978e-01

2.474999999999999978e-01

2.474999999999999978e-01

2.500000000000000000e-01

2.550000000000000044e-01

2.575000000000000067e-01

2.675000000000000155e-01

2.849999999999999756e-01

3.024999999999999911e-01

3.300000000000000155e-01

3.499999999999999778e-01

3.649999999999999911e-01

3.724999999999999978e-01

3.775000000000000022e-01

3.875000000000000111e-01

3.950000000000000178e-01

4.099999999999999756e-01

4.375000000000000000e-01

4.749999999999999778e-01

5.124999999999999556e-01

5.424999999999999822e-01

5.524999999999999911e-01

5.474999999999999867e-01

5.224999999999999645e-01

4.924999999999999933e-01

4.500000000000000111e-01

4.124999999999999778e-01

3.875000000000000111e-01

3.724999999999999978e-01

3.499999999999999778e-01

3.125000000000000000e-01

2.750000000000000222e-01

2.399999999999999911e-01

2.225000000000000033e-01

2.124999999999999944e-01

2.074999999999999900e-01

2.074999999999999900e-01

2.074999999999999900e-01

2.025000000000000133e-01

2.074999999999999900e-01

2.025000000000000133e-01

2.000000000000000111e-01

2.025000000000000133e-01

2.025000000000000133e-01

2.074999999999999900e-01

2.074999999999999900e-01

2.074999999999999900e-01

2.000000000000000111e-01

1.900000000000000022e-01

1.724999999999999867e-01

1.549999999999999989e-01

1.524999999999999967e-01

1.849999999999999978e-01

2.300000000000000100e-01

2.899999999999999800e-01

4.025000000000000244e-01

5.799999999999999600e-01

8.499999999999999778e-01

1.120000000000000107e+00

1.377499999999999947e+00

1.557500000000000107e+00

1.715000000000000080e+00

1.912500000000000089e+00

2.117500000000000160e+00

2.225000000000000089e+00

2.117500000000000160e+00

1.767500000000000071e+00

1.264999999999999902e+00

7.425000000000000488e-01

2.999999999999999889e-01

2.500000000000000052e-03

-1.650000000000000078e-01

-2.275000000000000078e-01

-2.225000000000000033e-01

-2.000000000000000111e-01

-1.799999999999999933e-01

-1.675000000000000100e-01

-1.575000000000000011e-01

-1.400000000000000133e-01

-1.375000000000000111e-01

-1.375000000000000111e-01

-1.375000000000000111e-01

-1.350000000000000089e-01

-1.300000000000000044e-01

-1.250000000000000000e-01

-1.174999999999999933e-01

-1.024999999999999939e-01

-8.999999999999999667e-02

-7.499999999999999722e-02

-7.249999999999999500e-02

-8.250000000000000389e-02

-1.000000000000000056e-01

-1.074999999999999983e-01

-1.024999999999999939e-01

-1.000000000000000056e-01

-9.750000000000000333e-02

-1.000000000000000056e-01

-1.100000000000000006e-01

-1.125000000000000028e-01

-1.125000000000000028e-01

-1.000000000000000056e-01

-8.999999999999999667e-02

-8.250000000000000389e-02

-7.499999999999999722e-02

-7.000000000000000666e-02

-6.500000000000000222e-02

-5.750000000000000250e-02

-5.249999999999999806e-02

-4.499999999999999833e-02

-4.250000000000000305e-02

-3.500000000000000333e-02

-2.750000000000000014e-02

-2.000000000000000042e-02

7.499999999999999722e-03

2.500000000000000139e-02

4.250000000000000305e-02

5.249999999999999806e-02

7.499999999999999722e-02

1.000000000000000056e-01

1.275000000000000022e-01

1.524999999999999967e-01

1.650000000000000078e-01

1.650000000000000078e-01

1.650000000000000078e-01

1.524999999999999967e-01

1.524999999999999967e-01

1.625000000000000056e-01

1.849999999999999978e-01

1.900000000000000022e-01

1.900000000000000022e-01

1.849999999999999978e-01

1.849999999999999978e-01

1.849999999999999978e-01

1.925000000000000044e-01

2.000000000000000111e-01

2.025000000000000133e-01

2.074999999999999900e-01

2.074999999999999900e-01

2.025000000000000133e-01

2.000000000000000111e-01

1.950000000000000067e-01

1.849999999999999978e-01

1.799999999999999933e-01

1.749999999999999889e-01

1.799999999999999933e-01

1.824999999999999956e-01

1.824999999999999956e-01

1.749999999999999889e-01

1.675000000000000100e-01

1.749999999999999889e-01

1.749999999999999889e-01

1.724999999999999867e-01

1.549999999999999989e-01

1.400000000000000133e-01

1.300000000000000044e-01

1.350000000000000089e-01

1.400000000000000133e-01

1.474999999999999922e-01

1.449999999999999900e-01

1.400000000000000133e-01

1.400000000000000133e-01

1.549999999999999989e-01

1.749999999999999889e-01

2.074999999999999900e-01

2.300000000000000100e-01

2.449999999999999956e-01

2.575000000000000067e-01

2.750000000000000222e-01

2.924999999999999822e-01

3.099999999999999978e-01

3.125000000000000000e-01

3.300000000000000155e-01

3.649999999999999911e-01

4.099999999999999756e-01

4.425000000000000044e-01

4.550000000000000155e-01

4.274999999999999911e-01

3.850000000000000089e-01

3.375000000000000222e-01

2.999999999999999889e-01

2.824999999999999734e-01

2.750000000000000222e-01

2.675000000000000155e-01

2.474999999999999978e-01

2.025000000000000133e-01

1.549999999999999989e-01

1.125000000000000028e-01

9.249999999999999889e-02

9.249999999999999889e-02

9.750000000000000333e-02

1.100000000000000006e-01

1.199999999999999956e-01

1.300000000000000044e-01

1.350000000000000089e-01

1.275000000000000022e-01

1.174999999999999933e-01

1.074999999999999983e-01

9.249999999999999889e-02

8.000000000000000167e-02

6.500000000000000222e-02

7.249999999999999500e-02

6.500000000000000222e-02

6.250000000000000000e-02

4.750000000000000056e-02

4.750000000000000056e-02

7.499999999999999722e-02

1.250000000000000000e-01

1.849999999999999978e-01

2.899999999999999800e-01

4.650000000000000244e-01

7.049999999999999600e-01

9.875000000000000444e-01

1.247500000000000053e+00

1.422500000000000098e+00

1.547500000000000098e+00

1.712499999999999911e+00

1.939999999999999947e+00

2.120000000000000107e+00

2.107499999999999929e+00

1.830000000000000071e+00

1.347499999999999920e+00

7.900000000000000355e-01

2.899999999999999800e-01

-7.000000000000000666e-02

-2.750000000000000222e-01

-3.574999999999999845e-01

-3.649999999999999911e-01

-3.300000000000000155e-01

-2.899999999999999800e-01

-2.650000000000000133e-01

-2.500000000000000000e-01

-2.399999999999999911e-01

-2.474999999999999978e-01

-2.625000000000000111e-01

-2.650000000000000133e-01

-2.575000000000000067e-01

-2.474999999999999978e-01

-2.399999999999999911e-01

-2.225000000000000033e-01

-2.099999999999999922e-01

-2.000000000000000111e-01

-1.950000000000000067e-01

-1.824999999999999956e-01

-1.799999999999999933e-01

-1.799999999999999933e-01

-1.900000000000000022e-01

-1.950000000000000067e-01

-2.000000000000000111e-01

-2.000000000000000111e-01

-1.950000000000000067e-01

-1.900000000000000022e-01

-1.900000000000000022e-01

-1.849999999999999978e-01

-1.849999999999999978e-01

-1.849999999999999978e-01

-1.849999999999999978e-01

-1.749999999999999889e-01

-1.650000000000000078e-01

-1.549999999999999989e-01

-1.400000000000000133e-01

-1.250000000000000000e-01

-1.100000000000000006e-01

-1.024999999999999939e-01

-9.750000000000000333e-02

-8.500000000000000611e-02

-7.000000000000000666e-02

-5.500000000000000028e-02

-4.250000000000000305e-02

-2.000000000000000042e-02

7.499999999999999722e-03

2.500000000000000139e-02

4.750000000000000056e-02

7.000000000000000666e-02

8.999999999999999667e-02

1.074999999999999983e-01

1.275000000000000022e-01

1.449999999999999900e-01

1.575000000000000011e-01

1.749999999999999889e-01

1.925000000000000044e-01

2.099999999999999922e-01

2.200000000000000011e-01

2.300000000000000100e-01

2.399999999999999911e-01

2.550000000000000044e-01

2.625000000000000111e-01

2.675000000000000155e-01

2.750000000000000222e-01

2.775000000000000244e-01

2.849999999999999756e-01

2.849999999999999756e-01

2.849999999999999756e-01

2.775000000000000244e-01

2.750000000000000222e-01

2.725000000000000200e-01

2.725000000000000200e-01

2.675000000000000155e-01

2.625000000000000111e-01

2.650000000000000133e-01

2.675000000000000155e-01

2.725000000000000200e-01

2.750000000000000222e-01

2.750000000000000222e-01

2.725000000000000200e-01

2.725000000000000200e-01

2.650000000000000133e-01

2.675000000000000155e-01

2.625000000000000111e-01

2.625000000000000111e-01

2.625000000000000111e-01

2.725000000000000200e-01

2.775000000000000244e-01

2.824999999999999734e-01

2.899999999999999800e-01

2.999999999999999889e-01

3.125000000000000000e-01

3.300000000000000155e-01

3.499999999999999778e-01

3.674999999999999933e-01

3.850000000000000089e-01

3.950000000000000178e-01

4.050000000000000266e-01

4.099999999999999756e-01

4.199999999999999845e-01

4.299999999999999933e-01

4.550000000000000155e-01

4.924999999999999933e-01

5.324999999999999734e-01

5.649999999999999467e-01

5.749999999999999556e-01

5.649999999999999467e-01

5.474999999999999867e-01

5.200000000000000178e-01

4.749999999999999778e-01

4.400000000000000022e-01

4.149999999999999800e-01

4.050000000000000266e-01

3.825000000000000067e-01

3.474999999999999756e-01

3.024999999999999911e-01

2.675000000000000155e-01

2.474999999999999978e-01

2.449999999999999956e-01

2.399999999999999911e-01

2.374999999999999889e-01

2.399999999999999911e-01

2.449999999999999956e-01

2.449999999999999956e-01

2.374999999999999889e-01

2.300000000000000100e-01

2.349999999999999867e-01

2.399999999999999911e-01

2.399999999999999911e-01

2.374999999999999889e-01

2.349999999999999867e-01

2.300000000000000100e-01

2.200000000000000011e-01

2.025000000000000133e-01

1.824999999999999956e-01

1.849999999999999978e-01

2.225000000000000033e-01

2.849999999999999756e-01

3.574999999999999845e-01

4.924999999999999933e-01

6.750000000000000444e-01

9.174999999999999822e-01

1.197500000000000009e+00

1.429999999999999938e+00

1.592500000000000027e+00

1.752499999999999947e+00

1.959999999999999964e+00

2.182500000000000107e+00

2.279999999999999805e+00

2.137500000000000178e+00

1.757500000000000062e+00

1.227500000000000036e+00

6.875000000000000000e-01

2.550000000000000044e-01

-3.500000000000000333e-02

-1.849999999999999978e-01

-2.275000000000000078e-01

-2.124999999999999944e-01

-1.799999999999999933e-01

-1.575000000000000011e-01

-1.524999999999999967e-01

-1.400000000000000133e-01

-1.375000000000000111e-01

-1.400000000000000133e-01

-1.400000000000000133e-01

-1.375000000000000111e-01

-1.350000000000000089e-01

-1.375000000000000111e-01

-1.300000000000000044e-01

-1.275000000000000022e-01

-1.174999999999999933e-01

-1.100000000000000006e-01

-1.074999999999999983e-01

-1.000000000000000056e-01

-9.249999999999999889e-02

-9.750000000000000333e-02

-9.750000000000000333e-02

-1.000000000000000056e-01

-1.000000000000000056e-01

-1.000000000000000056e-01

-9.249999999999999889e-02

-8.500000000000000611e-02

-7.499999999999999722e-02

-7.249999999999999500e-02

-6.250000000000000000e-02

-6.250000000000000000e-02

-6.250000000000000000e-02

-5.500000000000000028e-02

-5.249999999999999806e-02

-4.499999999999999833e-02

-3.749999999999999861e-02

-2.999999999999999889e-02

-2.000000000000000042e-02

2.500000000000000052e-03

1.750000000000000167e-02

3.749999999999999861e-02

5.500000000000000028e-02

7.249999999999999500e-02

8.500000000000000611e-02

9.750000000000000333e-02

1.024999999999999939e-01

1.199999999999999956e-01

1.400000000000000133e-01

1.575000000000000011e-01

1.749999999999999889e-01

1.900000000000000022e-01

2.025000000000000133e-01

2.124999999999999944e-01

2.225000000000000033e-01

2.349999999999999867e-01

2.399999999999999911e-01

2.500000000000000000e-01

2.625000000000000111e-01

2.675000000000000155e-01

2.725000000000000200e-01

2.725000000000000200e-01

2.750000000000000222e-01

2.775000000000000244e-01

2.824999999999999734e-01

2.750000000000000222e-01

2.775000000000000244e-01

2.824999999999999734e-01

2.849999999999999756e-01

2.824999999999999734e-01

2.824999999999999734e-01

2.750000000000000222e-01

2.750000000000000222e-01

2.725000000000000200e-01

2.725000000000000200e-01

2.675000000000000155e-01

2.650000000000000133e-01

2.625000000000000111e-01

2.625000000000000111e-01

2.625000000000000111e-01

2.625000000000000111e-01

2.575000000000000067e-01

2.625000000000000111e-01

2.625000000000000111e-01

