3.449999999999999734e-01

3.449999999999999734e-01

3.375000000000000222e-01

3.200000000000000067e-01

3.200000000000000067e-01

3.250000000000000111e-01

3.574999999999999845e-01

3.950000000000000178e-01

4.324999999999999956e-01

4.625000000000000222e-01

4.824999999999999845e-01

4.824999999999999845e-01

4.824999999999999845e-01

4.699999999999999734e-01

4.500000000000000111e-01

4.375000000000000000e-01

4.249999999999999889e-01

4.000000000000000222e-01

3.699999999999999956e-01

3.325000000000000178e-01

2.874999999999999778e-01

2.575000000000000067e-01

2.325000000000000122e-01

2.200000000000000011e-01

2.074999999999999900e-01

2.000000000000000111e-01

1.950000000000000067e-01

1.950000000000000067e-01

1.950000000000000067e-01

1.875000000000000000e-01

1.749999999999999889e-01

1.749999999999999889e-01

1.625000000000000056e-01

1.700000000000000122e-01

1.625000000000000056e-01

1.625000000000000056e-01

1.625000000000000056e-01

1.625000000000000056e-01

1.749999999999999889e-01

2.000000000000000111e-01

2.500000000000000000e-01

3.250000000000000111e-01

4.199999999999999845e-01

5.200000000000000178e-01

6.324999999999999512e-01

7.750000000000000222e-01

9.375000000000000000e-01

1.120000000000000107e+00

1.300000000000000044e+00

1.475000000000000089e+00

1.620000000000000107e+00

1.745000000000000107e+00

1.862500000000000044e+00

1.957500000000000018e+00

2.024999999999999911e+00

2.082500000000000018e+00

2.137500000000000178e+00

2.200000000000000178e+00

2.257499999999999840e+00

2.287500000000000089e+00

2.274999999999999911e+00

2.207500000000000018e+00

2.100000000000000089e+00

1.975000000000000089e+00

1.837499999999999911e+00

1.682500000000000107e+00

1.520000000000000018e+00

1.350000000000000089e+00

1.187500000000000000e+00

1.032499999999999973e+00

8.699999999999999956e-01

6.949999999999999512e-01

4.874999999999999889e-01

2.625000000000000111e-01

2.500000000000000139e-02

-2.074999999999999900e-01

-3.825000000000000067e-01

-5.000000000000000000e-01

-5.749999999999999556e-01

-5.949999999999999734e-01

-5.999999999999999778e-01

-5.999999999999999778e-01

-6.125000000000000444e-01

-6.500000000000000222e-01

-7.075000000000000178e-01

-7.750000000000000222e-01

-8.375000000000000222e-01

-8.824999999999999512e-01

-9.074999999999999734e-01

-9.200000000000000400e-01

-9.324999999999999956e-01

-9.375000000000000000e-01

-9.499999999999999556e-01

-9.625000000000000222e-01

-9.699999999999999734e-01

-9.825000000000000400e-01

-1.000000000000000000e+00

-1.020000000000000018e+00

-1.024999999999999911e+00

-1.032499999999999973e+00

-1.037500000000000089e+00

-1.037500000000000089e+00

-1.044999999999999929e+00

-1.057500000000000107e+00

-1.070000000000000062e+00

-1.082500000000000018e+00

-1.082500000000000018e+00

-1.070000000000000062e+00

-1.057500000000000107e+00

-1.044999999999999929e+00

-1.024999999999999911e+00

-1.007500000000000062e+00

-9.825000000000000400e-01

-9.449999999999999512e-01

-9.000000000000000222e-01

-8.499999999999999778e-01

-8.000000000000000444e-01

-7.375000000000000444e-01

-6.824999999999999956e-01

-6.125000000000000444e-01

-5.450000000000000400e-01

-4.699999999999999734e-01

-3.950000000000000178e-01

-3.200000000000000067e-01

-2.449999999999999956e-01

-1.625000000000000056e-01

-9.500000000000000111e-02

0.000000000000000000e+00

5.750000000000000250e-02

1.125000000000000028e-01

1.625000000000000056e-01

2.200000000000000011e-01

2.625000000000000111e-01

2.999999999999999889e-01

3.375000000000000222e-01

3.574999999999999845e-01

3.699999999999999956e-01

3.875000000000000111e-01

4.000000000000000222e-01

4.199999999999999845e-01

4.249999999999999889e-01

4.249999999999999889e-01

4.124999999999999778e-01

4.000000000000000222e-01

4.000000000000000222e-01

3.950000000000000178e-01

3.950000000000000178e-01

3.875000000000000111e-01

3.825000000000000067e-01

3.699999999999999956e-01

3.624999999999999889e-01

3.449999999999999734e-01

3.375000000000000222e-01

3.250000000000000111e-01

3.125000000000000000e-01

2.999999999999999889e-01

2.949999999999999845e-01

2.874999999999999778e-01

2.949999999999999845e-01

2.949999999999999845e-01

3.074999999999999956e-01

3.125000000000000000e-01

3.250000000000000111e-01

3.375000000000000222e-01

3.375000000000000222e-01

3.325000000000000178e-01

3.250000000000000111e-01

3.200000000000000067e-01

3.250000000000000111e-01

3.499999999999999778e-01

3.875000000000000111e-01

4.375000000000000000e-01

4.625000000000000222e-01

4.749999999999999778e-01

4.699999999999999734e-01

4.575000000000000178e-01

4.450000000000000067e-01

4.375000000000000000e-01

4.199999999999999845e-01

4.000000000000000222e-01

3.825000000000000067e-01

3.624999999999999889e-01

3.250000000000000111e-01

2.874999999999999778e-01

2.500000000000000000e-01

2.250000000000000056e-01

2.000000000000000111e-01

1.824999999999999956e-01

1.749999999999999889e-01

1.625000000000000056e-01

1.625000000000000056e-01

1.700000000000000122e-01

1.700000000000000122e-01

1.625000000000000056e-01

1.575000000000000011e-01

1.575000000000000011e-01

1.575000000000000011e-01

1.499999999999999944e-01

1.499999999999999944e-01

1.499999999999999944e-01

1.499999999999999944e-01

1.499999999999999944e-01

1.749999999999999889e-01

2.200000000000000011e-01

2.949999999999999845e-01

3.950000000000000178e-01

5.200000000000000178e-01

6.374999999999999556e-01

7.700000000000000178e-01

9.324999999999999956e-01

1.112500000000000044e+00

1.294999999999999929e+00

1.469999999999999973e+00

1.607499999999999929e+00

1.725000000000000089e+00

1.832500000000000018e+00

1.912500000000000089e+00

1.975000000000000089e+00

2.007499999999999840e+00

2.049999999999999822e+00

2.107499999999999929e+00

2.157500000000000195e+00

2.174999999999999822e+00

2.149999999999999911e+00

2.069999999999999840e+00

1.957500000000000018e+00

1.832500000000000018e+00

1.707500000000000018e+00

1.557500000000000107e+00

1.395000000000000018e+00

1.219999999999999973e+00

1.074999999999999956e+00

9.324999999999999956e-01

7.824999999999999734e-01

6.199999999999999956e-01

4.249999999999999889e-01

2.074999999999999900e-01

0.000000000000000000e+00

-2.250000000000000056e-01

-3.875000000000000111e-01

-5.074999999999999512e-01

-5.825000000000000178e-01

-5.999999999999999778e-01

-6.075000000000000400e-01

-6.125000000000000444e-01

-6.250000000000000000e-01

-6.624999999999999778e-01

-7.125000000000000222e-01

-7.750000000000000222e-01

-8.375000000000000222e-01

-8.750000000000000000e-01

-9.000000000000000222e-01

-9.074999999999999734e-01

-9.124999999999999778e-01

-9.200000000000000400e-01

-9.324999999999999956e-01

-9.324999999999999956e-01

-9.449999999999999512e-01

-9.575000000000000178e-01

-9.625000000000000222e-01

-9.749999999999999778e-01

-9.875000000000000444e-01

-9.949999999999999956e-01

-1.000000000000000000e+00

-1.012499999999999956e+00

-1.020000000000000018e+00

-1.024999999999999911e+00

-1.012499999999999956e+00

-1.007500000000000062e+00

-1.007500000000000062e+00

-1.012499999999999956e+00

-9.949999999999999956e-01

-9.949999999999999956e-01

-9.749999999999999778e-01

-9.499999999999999556e-01

-9.200000000000000400e-01

-8.874999999999999556e-01

-8.449999999999999734e-01

-7.950000000000000400e-01

-7.375000000000000444e-01

-6.949999999999999512e-01

-6.324999999999999512e-01

-5.699999999999999512e-01

-5.000000000000000000e-01

-4.324999999999999956e-01

-3.574999999999999845e-01

-2.874999999999999778e-01

-2.124999999999999944e-01

-1.449999999999999900e-01

-8.250000000000000389e-02

0.000000000000000000e+00

6.250000000000000000e-02

1.199999999999999956e-01

1.749999999999999889e-01

2.250000000000000056e-01

2.625000000000000111e-01

2.999999999999999889e-01

3.200000000000000067e-01

3.499999999999999778e-01

3.699999999999999956e-01

3.750000000000000000e-01

3.825000000000000067e-01

3.950000000000000178e-01

3.950000000000000178e-01

3.950000000000000178e-01

4.000000000000000222e-01

4.000000000000000222e-01

3.950000000000000178e-01

3.875000000000000111e-01

3.750000000000000000e-01

3.699999999999999956e-01

3.499999999999999778e-01

3.499999999999999778e-01

3.375000000000000222e-01

3.375000000000000222e-01

3.250000000000000111e-01

3.074999999999999956e-01

2.999999999999999889e-01

2.949999999999999845e-01

2.874999999999999778e-01

2.874999999999999778e-01

2.949999999999999845e-01

2.949999999999999845e-01

3.074999999999999956e-01

3.125000000000000000e-01

3.250000000000000111e-01

3.375000000000000222e-01

3.250000000000000111e-01

3.200000000000000067e-01

3.074999999999999956e-01

2.999999999999999889e-01

3.250000000000000111e-01

3.624999999999999889e-01

3.950000000000000178e-01

4.249999999999999889e-01

4.375000000000000000e-01

4.375000000000000000e-01

4.375000000000000000e-01

4.249999999999999889e-01

4.199999999999999845e-01

4.074999999999999734e-01

3.875000000000000111e-01

3.574999999999999845e-01

3.250000000000000111e-01

2.824999999999999734e-01

2.449999999999999956e-01

2.200000000000000011e-01

1.875000000000000000e-01

1.749999999999999889e-01

1.700000000000000122e-01

1.575000000000000011e-01

1.499999999999999944e-01

1.575000000000000011e-01

1.575000000000000011e-01

1.625000000000000056e-01

1.625000000000000056e-01

1.625000000000000056e-01

1.575000000000000011e-01

1.499999999999999944e-01

1.449999999999999900e-01

1.375000000000000111e-01

1.375000000000000111e-01

1.375000000000000111e-01

1.375000000000000111e-01

1.449999999999999900e-01

1.749999999999999889e-01

2.250000000000000056e-01

2.999999999999999889e-01

4.000000000000000222e-01

5.250000000000000222e-01

6.500000000000000222e-01

7.950000000000000400e-01

9.575000000000000178e-01

1.132500000000000062e+00

1.300000000000000044e+00

1.449999999999999956e+00

1.562500000000000000e+00

1.662500000000000089e+00

1.737500000000000044e+00

1.787500000000000089e+00

1.812500000000000000e+00

1.837499999999999911e+00

1.862500000000000044e+00

1.919999999999999929e+00

1.949999999999999956e+00

1.962499999999999911e+00

1.912500000000000089e+00

1.820000000000000062e+00

1.699999999999999956e+00

1.574999999999999956e+00

1.445000000000000062e+00

1.300000000000000044e+00

1.162500000000000089e+00

1.020000000000000018e+00

8.874999999999999556e-01

7.750000000000000222e-01

6.624999999999999778e-01

5.250000000000000222e-01

3.699999999999999956e-01

1.875000000000000000e-01

0.000000000000000000e+00

-2.000000000000000111e-01

-3.375000000000000222e-01

-4.500000000000000111e-01

-5.000000000000000000e-01

-5.250000000000000222e-01

-5.200000000000000178e-01

-5.374999999999999778e-01

-5.625000000000000000e-01

-6.075000000000000400e-01

-6.500000000000000222e-01

-7.075000000000000178e-01

-7.574999999999999512e-01

-7.950000000000000400e-01

-8.125000000000000000e-01

-8.249999999999999556e-01

-8.325000000000000178e-01

-8.325000000000000178e-01

-8.449999999999999734e-01

-8.499999999999999778e-01

-8.625000000000000444e-01

-8.750000000000000000e-01

-8.874999999999999556e-01

-8.950000000000000178e-01

-9.000000000000000222e-01

-9.074999999999999734e-01

-9.124999999999999778e-01

-9.200000000000000400e-01

-9.324999999999999956e-01

-9.324999999999999956e-01

-9.375000000000000000e-01

-9.324999999999999956e-01

-9.375000000000000000e-01

-9.250000000000000444e-01

-9.124999999999999778e-01

-9.000000000000000222e-01

-8.824999999999999512e-01

-8.625000000000000444e-01

-8.449999999999999734e-01

-8.199999999999999512e-01

-7.750000000000000222e-01

-7.325000000000000400e-01

-6.700000000000000400e-01

-6.125000000000000444e-01

-5.574999999999999956e-01

-4.949999999999999956e-01

-4.249999999999999889e-01

-3.624999999999999889e-01

-2.949999999999999845e-01

-2.250000000000000056e-01

-1.575000000000000011e-01

-8.250000000000000389e-02

0.000000000000000000e+00

6.250000000000000000e-02

1.250000000000000000e-01

1.749999999999999889e-01

2.325000000000000122e-01

2.700000000000000178e-01

2.999999999999999889e-01

3.375000000000000222e-01

3.624999999999999889e-01

3.825000000000000067e-01

4.000000000000000222e-01

4.124999999999999778e-01

4.199999999999999845e-01

4.249999999999999889e-01

4.375000000000000000e-01

4.375000000000000000e-01

4.324999999999999956e-01

4.375000000000000000e-01

4.375000000000000000e-01

4.249999999999999889e-01

4.124999999999999778e-01

4.000000000000000222e-01

3.875000000000000111e-01

3.750000000000000000e-01

3.624999999999999889e-01

3.574999999999999845e-01

3.449999999999999734e-01

3.375000000000000222e-01

3.250000000000000111e-01

3.200000000000000067e-01

3.074999999999999956e-01

3.074999999999999956e-01

2.999999999999999889e-01

2.999999999999999889e-01

2.999999999999999889e-01

3.125000000000000000e-01

3.250000000000000111e-01

3.375000000000000222e-01

3.449999999999999734e-01

3.375000000000000222e-01

3.250000000000000111e-01

3.125000000000000000e-01

3.200000000000000067e-01

3.325000000000000178e-01

3.750000000000000000e-01

4.124999999999999778e-01

4.500000000000000111e-01

4.749999999999999778e-01

4.824999999999999845e-01

4.749999999999999778e-01

4.749999999999999778e-01

4.699999999999999734e-01

4.450000000000000067e-01

4.249999999999999889e-01

4.124999999999999778e-01

3.875000000000000111e-01

3.574999999999999845e-01

3.125000000000000000e-01

2.824999999999999734e-01

2.500000000000000000e-01

2.374999999999999889e-01

2.250000000000000056e-01

2.200000000000000011e-01

2.000000000000000111e-01

1.875000000000000000e-01

2.000000000000000111e-01

1.950000000000000067e-01

1.950000000000000067e-01

1.950000000000000067e-01

1.950000000000000067e-01

1.875000000000000000e-01

1.875000000000000000e-01

1.824999999999999956e-01

1.875000000000000000e-01

1.875000000000000000e-01

1.875000000000000000e-01

2.074999999999999900e-01

2.325000000000000122e-01

2.824999999999999734e-01

3.699999999999999956e-01

4.625000000000000222e-01

5.825000000000000178e-01

6.949999999999999512e-01

8.449999999999999734e-01

1.000000000000000000e+00

1.182500000000000107e+00

1.350000000000000089e+00

1.512499999999999956e+00

1.632500000000000062e+00

1.745000000000000107e+00

1.844999999999999973e+00

1.919999999999999929e+00

1.982499999999999929e+00

2.024999999999999911e+00

2.095000000000000195e+00

2.149999999999999911e+00

2.200000000000000178e+00

2.207500000000000018e+00

2.162500000000000089e+00

2.069999999999999840e+00

1.949999999999999956e+00

1.837499999999999911e+00

1.695000000000000062e+00

1.544999999999999929e+00

1.375000000000000000e+00

1.212499999999999911e+00

1.057500000000000107e+00

9.250000000000000444e-01

7.750000000000000222e-01

6.075000000000000400e-01

4.199999999999999845e-01

2.074999999999999900e-01

-3.250000000000000111e-02

-2.250000000000000056e-01

-3.825000000000000067e-01

-4.824999999999999845e-01

-5.200000000000000178e-01

-5.250000000000000222e-01

-5.250000000000000222e-01

-5.324999999999999734e-01

-5.625000000000000000e-01

-5.999999999999999778e-01

-6.624999999999999778e-01

-7.249999999999999778e-01

-7.750000000000000222e-01

-8.000000000000000444e-01

-8.325000000000000178e-01

-8.449999999999999734e-01

-8.499999999999999778e-01

-8.499999999999999778e-01

-8.750000000000000000e-01

-8.824999999999999512e-01

-8.874999999999999556e-01

-8.874999999999999556e-01

-9.000000000000000222e-01

-9.074999999999999734e-01

-9.200000000000000400e-01

-9.250000000000000444e-01

-9.250000000000000444e-01

-9.375000000000000000e-01

-9.499999999999999556e-01

-9.699999999999999734e-01

-9.749999999999999778e-01

-9.749999999999999778e-01

-9.699999999999999734e-01

-9.699999999999999734e-01

-9.575000000000000178e-01

-9.449999999999999512e-01

-9.250000000000000444e-01

-9.000000000000000222e-01

-8.625000000000000444e-01

-8.375000000000000222e-01

-7.950000000000000400e-01

-7.500000000000000000e-01

-6.949999999999999512e-01

-6.374999999999999556e-01

-5.749999999999999556e-01

-5.000000000000000000e-01

-4.324999999999999956e-01

-3.624999999999999889e-01

-2.874999999999999778e-01

-2.124999999999999944e-01

-1.375000000000000111e-01

-7.000000000000000666e-02

2.000000000000000042e-02

8.749999999999999445e-02

1.499999999999999944e-01

2.074999999999999900e-01

2.575000000000000067e-01

2.999999999999999889e-01

3.449999999999999734e-01

3.750000000000000000e-01

4.000000000000000222e-01

4.249999999999999889e-01

4.450000000000000067e-01

4.625000000000000222e-01

4.699999999999999734e-01

4.824999999999999845e-01

4.749999999999999778e-01

4.874999999999999889e-01

4.749999999999999778e-01

4.699999999999999734e-01

4.625000000000000222e-01

4.575000000000000178e-01

4.450000000000000067e-01

4.375000000000000000e-01

4.199999999999999845e-01

4.074999999999999734e-01

3.950000000000000178e-01

3.825000000000000067e-01

3.699999999999999956e-01

3.574999999999999845e-01

3.499999999999999778e-01

3.449999999999999734e-01

3.449999999999999734e-01

3.375000000000000222e-01

3.449999999999999734e-01

3.574999999999999845e-01

3.750000000000000000e-01

3.875000000000000111e-01

3.950000000000000178e-01

3.825000000000000067e-01

3.750000000000000000e-01

3.624999999999999889e-01

3.624999999999999889e-01

3.699999999999999956e-01

3.950000000000000178e-01

4.324999999999999956e-01

4.699999999999999734e-01

4.874999999999999889e-01

5.000000000000000000e-01

4.949999999999999956e-01

4.874999999999999889e-01

4.824999999999999845e-01

4.699999999999999734e-01

4.500000000000000111e-01

4.375000000000000000e-01

4.124999999999999778e-01

3.825000000000000067e-01

3.449999999999999734e-01

2.999999999999999889e-01

2.750000000000000222e-01

2.625000000000000111e-01

2.500000000000000000e-01

2.374999999999999889e-01

2.325000000000000122e-01

2.200000000000000011e-01

2.124999999999999944e-01

2.074999999999999900e-01

2.124999999999999944e-01

2.074999999999999900e-01

2.074999999999999900e-01

2.000000000000000111e-01

2.000000000000000111e-01

1.875000000000000000e-01

1.875000000000000000e-01

1.950000000000000067e-01

2.000000000000000111e-01

2.074999999999999900e-01

2.374999999999999889e-01

2.874999999999999778e-01

3.574999999999999845e-01

4.500000000000000111e-01

5.500000000000000444e-01

6.750000000000000444e-01

8.074999999999999956e-01

9.749999999999999778e-01

1.157499999999999973e+00

1.337499999999999911e+00

1.512499999999999956e+00

1.657499999999999973e+00

1.787500000000000089e+00

1.899999999999999911e+00

1.987500000000000044e+00

2.062500000000000000e+00

2.112499999999999822e+00

2.174999999999999822e+00

2.237499999999999822e+00

2.287500000000000089e+00

2.294999999999999929e+00

2.250000000000000000e+00

2.162500000000000089e+00

2.057500000000000107e+00

1.937500000000000000e+00

1.794999999999999929e+00

1.637499999999999956e+00

1.475000000000000089e+00

1.300000000000000044e+00

1.137499999999999956e+00

9.825000000000000400e-01

8.125000000000000000e-01

6.324999999999999512e-01

4.124999999999999778e-01

1.950000000000000067e-01

-5.750000000000000250e-02

-2.500000000000000000e-01

-4.249999999999999889e-01

-5.374999999999999778e-01

-5.875000000000000222e-01

-5.875000000000000222e-01

-5.825000000000000178e-01

-5.825000000000000178e-01

-5.999999999999999778e-01

-6.500000000000000222e-01

-7.125000000000000222e-01

-7.750000000000000222e-01

-8.325000000000000178e-01

-8.575000000000000400e-01

-8.824999999999999512e-01

-8.950000000000000178e-01

-9.074999999999999734e-01

-9.250000000000000444e-01

-9.375000000000000000e-01

-9.449999999999999512e-01

-9.575000000000000178e-01

-9.625000000000000222e-01

-9.825000000000000400e-01

-9.949999999999999956e-01

-1.000000000000000000e+00

-1.012499999999999956e+00

-1.012499999999999956e+00

-1.024999999999999911e+00

-1.037500000000000089e+00

-1.050000000000000044e+00

-1.050000000000000044e+00

-1.050000000000000044e+00

-1.050000000000000044e+00

-1.044999999999999929e+00

-1.024999999999999911e+00

-1.007500000000000062e+00

-9.825000000000000400e-01

-9.499999999999999556e-01

-9.200000000000000400e-01

-8.824999999999999512e-01

-8.499999999999999778e-01

-8.000000000000000444e-01

-7.449999999999999956e-01

-6.875000000000000000e-01

-6.250000000000000000e-01

-5.500000000000000444e-01

-4.824999999999999845e-01

-4.000000000000000222e-01

-3.200000000000000067e-01

-2.325000000000000122e-01

-1.625000000000000056e-01

-7.499999999999999722e-02

7.499999999999999722e-03

8.250000000000000389e-02

1.375000000000000111e-01

1.950000000000000067e-01

2.325000000000000122e-01

2.700000000000000178e-01

3.074999999999999956e-01

3.449999999999999734e-01

3.624999999999999889e-01

3.875000000000000111e-01

3.950000000000000178e-01

4.199999999999999845e-01

4.324999999999999956e-01

4.450000000000000067e-01

4.450000000000000067e-01

4.375000000000000000e-01

4.324999999999999956e-01

4.324999999999999956e-01

4.249999999999999889e-01

4.124999999999999778e-01

4.124999999999999778e-01

4.074999999999999734e-01

4.000000000000000222e-01

3.875000000000000111e-01

3.750000000000000000e-01

3.624999999999999889e-01

3.499999999999999778e-01

3.449999999999999734e-01

3.375000000000000222e-01

3.325000000000000178e-01

3.250000000000000111e-01

3.125000000000000000e-01

2.949999999999999845e-01

2.874999999999999778e-01

2.750000000000000222e-01

2.750000000000000222e-01

2.750000000000000222e-01

2.700000000000000178e-01

2.700000000000000178e-01

2.824999999999999734e-01

2.949999999999999845e-01

2.999999999999999889e-01

2.999999999999999889e-01

2.999999999999999889e-01

2.949999999999999845e-01

2.874999999999999778e-01

2.949999999999999845e-01

3.250000000000000111e-01

3.699999999999999956e-01

4.199999999999999845e-01

4.500000000000000111e-01

4.749999999999999778e-01

4.874999999999999889e-01

4.949999999999999956e-01

4.949999999999999956e-01

4.874999999999999889e-01

4.625000000000000222e-01

4.450000000000000067e-01

4.249999999999999889e-01

3.950000000000000178e-01

3.574999999999999845e-01

3.200000000000000067e-01

2.824999999999999734e-01

2.500000000000000000e-01

2.374999999999999889e-01

2.200000000000000011e-01

2.074999999999999900e-01

1.950000000000000067e-01

1.950000000000000067e-01

1.824999999999999956e-01

1.824999999999999956e-01

1.749999999999999889e-01

1.700000000000000122e-01

1.625000000000000056e-01

1.625000000000000056e-01

1.575000000000000011e-01

1.575000000000000011e-01

1.499999999999999944e-01

1.499999999999999944e-01

1.499999999999999944e-01

1.625000000000000056e-01

1.875000000000000000e-01

2.449999999999999956e-01

3.250000000000000111e-01

4.375000000000000000e-01

5.500000000000000444e-01

6.875000000000000000e-01

8.375000000000000222e-01

1.000000000000000000e+00

1.182500000000000107e+00

1.350000000000000089e+00

1.500000000000000000e+00

1.625000000000000000e+00

1.732499999999999929e+00

1.820000000000000062e+00

1.887499999999999956e+00

1.932500000000000107e+00

1.962499999999999911e+00

2.012500000000000178e+00

2.069999999999999840e+00

2.100000000000000089e+00

2.107499999999999929e+00

2.049999999999999822e+00

1.969999999999999973e+00

1.857499999999999929e+00

1.737500000000000044e+00

1.600000000000000089e+00

1.457500000000000018e+00

1.282499999999999973e+00

1.125000000000000000e+00

9.825000000000000400e-01

8.499999999999999778e-01

6.999999999999999556e-01

5.450000000000000400e-01

3.624999999999999889e-01

1.499999999999999944e-01

-8.250000000000000389e-02

-2.625000000000000111e-01

-4.124999999999999778e-01

-5.124999999999999556e-01

-5.574999999999999956e-01

-5.625000000000000000e-01

-5.625000000000000000e-01

-5.825000000000000178e-01

-6.075000000000000400e-01

-6.500000000000000222e-01

-7.075000000000000178e-01

-7.700000000000000178e-01

-8.199999999999999512e-01

-8.575000000000000400e-01

-8.750000000000000000e-01

-8.824999999999999512e-01

-8.874999999999999556e-01

-9.000000000000000222e-01

-9.074999999999999734e-01

-9.074999999999999734e-01

-9.200000000000000400e-01

-9.200000000000000400e-01

-9.449999999999999512e-01

-9.449999999999999512e-01

-9.499999999999999556e-01

-9.625000000000000222e-01

-9.825000000000000400e-01

-9.875000000000000444e-01

-1.007500000000000062e+00

-1.007500000000000062e+00

-1.007500000000000062e+00

-1.000000000000000000e+00

-9.949999999999999956e-01

-9.875000000000000444e-01

-9.825000000000000400e-01

-9.699999999999999734e-01

-9.699999999999999734e-01

-9.375000000000000000e-01

-9.074999999999999734e-01

-8.625000000000000444e-01

-8.249999999999999556e-01

-7.700000000000000178e-01

-7.199999999999999734e-01

-6.574999999999999734e-01

-5.999999999999999778e-01

-5.324999999999999734e-01

-4.625000000000000222e-01

-3.950000000000000178e-01

-3.250000000000000111e-01

-2.575000000000000067e-01

-1.749999999999999889e-01

-1.000000000000000056e-01

0.000000000000000000e+00

5.750000000000000250e-02

1.199999999999999956e-01

1.749999999999999889e-01

2.200000000000000011e-01

2.625000000000000111e-01

2.999999999999999889e-01

3.449999999999999734e-01

3.750000000000000000e-01

3.875000000000000111e-01

4.074999999999999734e-01

4.124999999999999778e-01

4.249999999999999889e-01

4.249999999999999889e-01

4.450000000000000067e-01

4.450000000000000067e-01

4.375000000000000000e-01

4.324999999999999956e-01

4.249999999999999889e-01

4.199999999999999845e-01

4.124999999999999778e-01

4.074999999999999734e-01

3.950000000000000178e-01

3.750000000000000000e-01

3.699999999999999956e-01

3.574999999999999845e-01

3.449999999999999734e-01

3.325000000000000178e-01

3.250000000000000111e-01

3.200000000000000067e-01

3.074999999999999956e-01

2.999999999999999889e-01

2.949999999999999845e-01

2.874999999999999778e-01

2.824999999999999734e-01

2.750000000000000222e-01

2.750000000000000222e-01

2.874999999999999778e-01

2.949999999999999845e-01

2.999999999999999889e-01

2.999999999999999889e-01

3.074999999999999956e-01

2.999999999999999889e-01

2.949999999999999845e-01

2.874999999999999778e-01

2.874999999999999778e-01

2.949999999999999845e-01

3.325000000000000178e-01

3.750000000000000000e-01

4.199999999999999845e-01

4.575000000000000178e-01

4.824999999999999845e-01

4.949999999999999956e-01

5.000000000000000000e-01

4.949999999999999956e-01

4.874999999999999889e-01

4.749999999999999778e-01

4.625000000000000222e-01

4.375000000000000000e-01

4.074999999999999734e-01

3.699999999999999956e-01

3.250000000000000111e-01

2.999999999999999889e-01

2.700000000000000178e-01

2.575000000000000067e-01

2.449999999999999956e-01

2.374999999999999889e-01

2.200000000000000011e-01

2.124999999999999944e-01

2.000000000000000111e-01

2.000000000000000111e-01

1.950000000000000067e-01

1.950000000000000067e-01

1.950000000000000067e-01

1.950000000000000067e-01

1.875000000000000000e-01

1.700000000000000122e-01

1.700000000000000122e-01

1.700000000000000122e-01

1.749999999999999889e-01

1.875000000000000000e-01

2.200000000000000011e-01

2.750000000000000222e-01

3.499999999999999778e-01

4.450000000000000067e-01

5.574999999999999956e-01

6.750000000000000444e-01

8.199999999999999512e-01

9.949999999999999956e-01

1.187500000000000000e+00

1.362500000000000044e+00

1.520000000000000018e+00

1.657499999999999973e+00

1.774999999999999911e+00

1.875000000000000000e+00

1.969999999999999973e+00

2.024999999999999911e+00

2.082500000000000018e+00

2.137500000000000178e+00

2.200000000000000178e+00

2.237499999999999822e+00

2.245000000000000107e+00

2.207500000000000018e+00

2.125000000000000000e+00

2.024999999999999911e+00

1.895000000000000018e+00

1.757500000000000062e+00

1.600000000000000089e+00

1.437500000000000000e+00

1.257500000000000062e+00

1.100000000000000089e+00

9.449999999999999512e-01

7.824999999999999734e-01

5.999999999999999778e-01

3.950000000000000178e-01

1.700000000000000122e-01

-7.499999999999999722e-02

-2.750000000000000222e-01

-4.324999999999999956e-01

-5.374999999999999778e-01

-5.825000000000000178e-01

-5.875000000000000222e-01

-5.875000000000000222e-01

-5.999999999999999778e-01

-6.199999999999999956e-01

-6.700000000000000400e-01

-7.375000000000000444e-01

-8.000000000000000444e-01

-8.499999999999999778e-01

-8.950000000000000178e-01

-9.200000000000000400e-01

-9.200000000000000400e-01

-9.250000000000000444e-01

-9.324999999999999956e-01

-9.375000000000000000e-01

-9.449999999999999512e-01

-9.575000000000000178e-01

-9.699999999999999734e-01

-9.875000000000000444e-01

-9.949999999999999956e-01

-1.012499999999999956e+00

-1.020000000000000018e+00

-1.032499999999999973e+00

-1.032499999999999973e+00

-1.044999999999999929e+00

-1.050000000000000044e+00

-1.057500000000000107e+00

-1.057500000000000107e+00

-1.050000000000000044e+00

-1.037500000000000089e+00

-1.020000000000000018e+00

-1.007500000000000062e+00

-9.825000000000000400e-01

-9.625000000000000222e-01

-9.324999999999999956e-01

-9.000000000000000222e-01

-8.499999999999999778e-01

-8.000000000000000444e-01

-7.500000000000000000e-01

-6.949999999999999512e-01

-6.374999999999999556e-01

-5.749999999999999556e-01

-5.000000000000000000e-01

-4.324999999999999956e-01

-3.499999999999999778e-01

-2.750000000000000222e-01

-2.000000000000000111e-01

-1.325000000000000067e-01

-5.000000000000000278e-02

3.749999999999999861e-02

1.000000000000000056e-01

1.575000000000000011e-01

1.950000000000000067e-01

2.325000000000000122e-01

2.750000000000000222e-01

3.074999999999999956e-01

3.375000000000000222e-01

3.624999999999999889e-01

3.825000000000000067e-01

4.000000000000000222e-01

4.124999999999999778e-01

4.249999999999999889e-01

4.199999999999999845e-01

4.199999999999999845e-01

4.124999999999999778e-01

4.199999999999999845e-01

4.074999999999999734e-01

4.000000000000000222e-01

3.950000000000000178e-01

3.875000000000000111e-01

3.699999999999999956e-01

3.574999999999999845e-01

3.449999999999999734e-01

3.375000000000000222e-01

3.250000000000000111e-01

3.200000000000000067e-01

3.074999999999999956e-01

2.949999999999999845e-01

2.824999999999999734e-01

2.824999999999999734e-01

2.750000000000000222e-01

2.625000000000000111e-01

2.575000000000000067e-01

2.500000000000000000e-01

2.449999999999999956e-01

2.449999999999999956e-01

2.500000000000000000e-01

2.575000000000000067e-01

2.625000000000000111e-01

2.750000000000000222e-01

2.874999999999999778e-01

2.874999999999999778e-01

2.874999999999999778e-01

2.750000000000000222e-01

2.750000000000000222e-01

2.874999999999999778e-01

3.200000000000000067e-01

3.624999999999999889e-01

4.124999999999999778e-01

4.500000000000000111e-01

4.749999999999999778e-01

4.949999999999999956e-01

4.949999999999999956e-01

4.949999999999999956e-01

4.949999999999999956e-01

4.749999999999999778e-01

4.500000000000000111e-01

4.324999999999999956e-01

4.000000000000000222e-01

3.574999999999999845e-01

3.125000000000000000e-01

2.874999999999999778e-01

2.625000000000000111e-01

2.374999999999999889e-01

2.200000000000000011e-01

2.124999999999999944e-01

2.000000000000000111e-01

2.074999999999999900e-01

2.000000000000000111e-01

2.074999999999999900e-01

1.950000000000000067e-01

1.950000000000000067e-01

1.875000000000000000e-01

1.824999999999999956e-01

1.700000000000000122e-01

1.700000000000000122e-01

1.625000000000000056e-01

1.625000000000000056e-01

1.700000000000000122e-01

1.875000000000000000e-01

2.250000000000000056e-01

2.824999999999999734e-01

3.624999999999999889e-01

4.625000000000000222e-01

5.825000000000000178e-01

6.999999999999999556e-01

8.699999999999999956e-01

1.044999999999999929e+00

1.232499999999999929e+00

1.407499999999999973e+00

1.570000000000000062e+00

1.695000000000000062e+00

1.820000000000000062e+00

1.925000000000000044e+00

2.012500000000000178e+00

2.069999999999999840e+00

2.120000000000000107e+00

2.169999999999999929e+00

2.237499999999999822e+00

2.270000000000000018e+00

2.270000000000000018e+00

2.220000000000000195e+00

2.125000000000000000e+00

2.012500000000000178e+00

1.895000000000000018e+00

1.750000000000000000e+00

1.594999999999999973e+00

1.425000000000000044e+00

1.262499999999999956e+00

1.120000000000000107e+00

9.625000000000000222e-01

7.950000000000000400e-01

5.949999999999999734e-01

3.750000000000000000e-01

1.499999999999999944e-01

-8.749999999999999445e-02

-2.824999999999999734e-01

-4.324999999999999956e-01

-5.374999999999999778e-01

-5.825000000000000178e-01

-5.999999999999999778e-01

-6.075000000000000400e-01

-6.125000000000000444e-01

-6.450000000000000178e-01

-6.875000000000000000e-01

-7.574999999999999512e-01

-8.199999999999999512e-01

-8.750000000000000000e-01

-9.000000000000000222e-01

-9.124999999999999778e-01

-9.124999999999999778e-01

-9.250000000000000444e-01

-9.324999999999999956e-01

-9.499999999999999556e-01

-9.575000000000000178e-01

-9.625000000000000222e-01

-9.749999999999999778e-01

-9.825000000000000400e-01

-9.875000000000000444e-01

-1.000000000000000000e+00

-1.012499999999999956e+00

-1.024999999999999911e+00

-1.024999999999999911e+00

-1.032499999999999973e+00

-1.032499999999999973e+00

-1.032499999999999973e+00

-1.032499999999999973e+00

-1.032499999999999973e+00

-1.024999999999999911e+00

-1.020000000000000018e+00

-1.007500000000000062e+00

-9.949999999999999956e-01

-9.625000000000000222e-01

-9.324999999999999956e-01

-9.000000000000000222e-01

-8.499999999999999778e-01

-8.074999999999999956e-01

-7.574999999999999512e-01

-6.875000000000000000e-01

-6.250000000000000000e-01

-5.574999999999999956e-01

-4.749999999999999778e-01

-4.124999999999999778e-01

-3.250000000000000111e-01

-2.449999999999999956e-01

-1.700000000000000122e-01

-1.000000000000000056e-01

-3.250000000000000111e-02

5.750000000000000250e-02

1.199999999999999956e-01

1.700000000000000122e-01

2.124999999999999944e-01

2.575000000000000067e-01

2.999999999999999889e-01

3.375000000000000222e-01

3.699999999999999956e-01

3.950000000000000178e-01

3.950000000000000178e-01

4.000000000000000222e-01

4.124999999999999778e-01

4.199999999999999845e-01

4.199999999999999845e-01

4.199999999999999845e-01

4.199999999999999845e-01

4.199999999999999845e-01

4.199999999999999845e-01

4.199999999999999845e-01

3.950000000000000178e-01

3.825000000000000067e-01

3.750000000000000000e-01

3.699999999999999956e-01

3.624999999999999889e-01

3.624999999999999889e-01

3.449999999999999734e-01

3.250000000000000111e-01

3.250000000000000111e-01

3.125000000000000000e-01

2.874999999999999778e-01

2.824999999999999734e-01

2.700000000000000178e-01

2.625000000000000111e-01

2.500000000000000000e-01

2.500000000000000000e-01

2.374999999999999889e-01

2.374999999999999889e-01

2.325000000000000122e-01

2.250000000000000056e-01

2.250000000000000056e-01

2.374999999999999889e-01

2.449999999999999956e-01

2.500000000000000000e-01

2.700000000000000178e-01

2.700000000000000178e-01

2.700000000000000178e-01

2.575000000000000067e-01

2.625000000000000111e-01

2.750000000000000222e-01

3.200000000000000067e-01

3.624999999999999889e-01

4.199999999999999845e-01

4.500000000000000111e-01

4.874999999999999889e-01

4.949999999999999956e-01

5.000000000000000000e-01

4.949999999999999956e-01

5.000000000000000000e-01

4.824999999999999845e-01

4.625000000000000222e-01

4.324999999999999956e-01

4.000000000000000222e-01

3.499999999999999778e-01

3.125000000000000000e-01

2.824999999999999734e-01

2.500000000000000000e-01

2.374999999999999889e-01

2.200000000000000011e-01

2.200000000000000011e-01

2.074999999999999900e-01

1.950000000000000067e-01

1.875000000000000000e-01

1.824999999999999956e-01

1.749999999999999889e-01

1.749999999999999889e-01

1.700000000000000122e-01

1.625000000000000056e-01

1.575000000000000011e-01

1.575000000000000011e-01

1.499999999999999944e-01

1.575000000000000011e-01

1.499999999999999944e-01

1.575000000000000011e-01

1.824999999999999956e-01

2.250000000000000056e-01

2.999999999999999889e-01

4.074999999999999734e-01

5.250000000000000222e-01

6.500000000000000222e-01

8.000000000000000444e-01

9.699999999999999734e-01

1.149999999999999911e+00

1.324999999999999956e+00

1.495000000000000107e+00

1.620000000000000107e+00

1.725000000000000089e+00

1.800000000000000044e+00

1.875000000000000000e+00

1.907499999999999973e+00

1.937500000000000000e+00

1.982499999999999929e+00

2.044999999999999929e+00

2.087499999999999911e+00

2.095000000000000195e+00

2.044999999999999929e+00

1.962499999999999911e+00

1.850000000000000089e+00

1.737500000000000044e+00

1.607499999999999929e+00

1.469999999999999973e+00

1.307500000000000107e+00

1.157499999999999973e+00

1.012499999999999956e+00

8.874999999999999556e-01

7.449999999999999956e-01

5.949999999999999734e-01

4.199999999999999845e-01

2.074999999999999900e-01

0.000000000000000000e+00

-2.074999999999999900e-01

-3.699999999999999956e-01

-4.874999999999999889e-01

-5.574999999999999956e-01

-5.749999999999999556e-01

-5.749999999999999556e-01

-5.825000000000000178e-01

-6.075000000000000400e-01

-6.574999999999999734e-01

-7.125000000000000222e-01

-7.750000000000000222e-01

-8.325000000000000178e-01

-8.750000000000000000e-01

-9.000000000000000222e-01

-9.074999999999999734e-01

-9.124999999999999778e-01

-9.124999999999999778e-01

-9.200000000000000400e-01

-9.250000000000000444e-01

-9.324999999999999956e-01

-9.449999999999999512e-01

-9.575000000000000178e-01

-9.625000000000000222e-01

-9.825000000000000400e-01

-9.825000000000000400e-01

-9.949999999999999956e-01

-9.949999999999999956e-01

-1.007500000000000062e+00

-1.012499999999999956e+00

-1.012499999999999956e+00

-1.020000000000000018e+00

-1.012499999999999956e+00

-1.000000000000000000e+00

-1.000000000000000000e+00

-9.825000000000000400e-01

-9.625000000000000222e-01

-9.375000000000000000e-01

-9.250000000000000444e-01

-8.874999999999999556e-01

-8.575000000000000400e-01

-8.000000000000000444e-01

-7.624999999999999556e-01

-7.075000000000000178e-01

-6.374999999999999556e-01

-5.825000000000000178e-01

-5.200000000000000178e-01

-4.500000000000000111e-01

-3.750000000000000000e-01

-2.949999999999999845e-01

-2.124999999999999944e-01

-1.499999999999999944e-01

-8.250000000000000389e-02

0.000000000000000000e+00

6.250000000000000000e-02

1.199999999999999956e-01

1.700000000000000122e-01

2.200000000000000011e-01

2.700000000000000178e-01

3.074999999999999956e-01

3.375000000000000222e-01

3.574999999999999845e-01

3.750000000000000000e-01

3.875000000000000111e-01

4.000000000000000222e-01

4.124999999999999778e-01

4.124999999999999778e-01

4.249999999999999889e-01

4.199999999999999845e-01

4.199999999999999845e-01

4.074999999999999734e-01

4.000000000000000222e-01

3.950000000000000178e-01

3.875000000000000111e-01

3.750000000000000000e-01

3.624999999999999889e-01

3.499999999999999778e-01

3.449999999999999734e-01

3.250000000000000111e-01

3.200000000000000067e-01

3.125000000000000000e-01

3.074999999999999956e-01

2.949999999999999845e-01

2.874999999999999778e-01

2.750000000000000222e-01

2.625000000000000111e-01

2.500000000000000000e-01

2.449999999999999956e-01

2.374999999999999889e-01

2.374999999999999889e-01

2.250000000000000056e-01

2.325000000000000122e-01

2.325000000000000122e-01

2.449999999999999956e-01

2.575000000000000067e-01

2.700000000000000178e-01

2.750000000000000222e-01

2.750000000000000222e-01

2.700000000000000178e-01

2.575000000000000067e-01

2.625000000000000111e-01

2.824999999999999734e-01

3.250000000000000111e-01

3.750000000000000000e-01

4.199999999999999845e-01

4.500000000000000111e-01

4.824999999999999845e-01

4.824999999999999845e-01

4.949999999999999956e-01

4.949999999999999956e-01

4.824999999999999845e-01

4.625000000000000222e-01

4.450000000000000067e-01

4.124999999999999778e-01

3.875000000000000111e-01

3.375000000000000222e-01

2.999999999999999889e-01

2.700000000000000178e-01

2.449999999999999956e-01

2.250000000000000056e-01

2.124999999999999944e-01

2.074999999999999900e-01

2.000000000000000111e-01

2.074999999999999900e-01

2.000000000000000111e-01

1.950000000000000067e-01

1.875000000000000000e-01

1.749999999999999889e-01

1.749999999999999889e-01

1.749999999999999889e-01

1.700000000000000122e-01

1.700000000000000122e-01

1.700000000000000122e-01

1.700000000000000122e-01

1.625000000000000056e-01

1.824999999999999956e-01

2.074999999999999900e-01

2.700000000000000178e-01

3.499999999999999778e-01

4.500000000000000111e-01

5.625000000000000000e-01

6.949999999999999512e-01

8.449999999999999734e-01

1.024999999999999911e+00

1.212499999999999911e+00

1.387499999999999956e+00

1.544999999999999929e+00

1.669999999999999929e+00

1.774999999999999911e+00

1.875000000000000000e+00

1.962499999999999911e+00

2.020000000000000018e+00

2.069999999999999840e+00

2.125000000000000000e+00

2.187500000000000000e+00

2.237499999999999822e+00

2.237499999999999822e+00

2.182500000000000107e+00

2.095000000000000195e+00

1.975000000000000089e+00

1.844999999999999973e+00

1.695000000000000062e+00

1.550000000000000044e+00

1.382500000000000062e+00

1.219999999999999973e+00

1.062500000000000000e+00

9.124999999999999778e-01

7.449999999999999956e-01

5.699999999999999512e-01

3.624999999999999889e-01

1.449999999999999900e-01

-9.500000000000000111e-02

-2.824999999999999734e-01

-4.324999999999999956e-01

-5.324999999999999734e-01

-5.749999999999999556e-01

-5.825000000000000178e-01

-5.825000000000000178e-01

-5.875000000000000222e-01

-6.199999999999999956e-01

-6.750000000000000444e-01

-7.375000000000000444e-01

-8.000000000000000444e-01

-8.499999999999999778e-01

-8.824999999999999512e-01

-8.950000000000000178e-01

-9.124999999999999778e-01

-9.124999999999999778e-01

-9.250000000000000444e-01

-9.375000000000000000e-01

-9.499999999999999556e-01

-9.499999999999999556e-01

-9.625000000000000222e-01

-9.625000000000000222e-01

-9.749999999999999778e-01

-9.875000000000000444e-01

-1.007500000000000062e+00

-1.012499999999999956e+00

-1.020000000000000018e+00

-1.032499999999999973e+00

-1.037500000000000089e+00

-1.044999999999999929e+00

-1.044999999999999929e+00

-1.044999999999999929e+00

-1.032499999999999973e+00

-1.020000000000000018e+00

-1.000000000000000000e+00

-9.825000000000000400e-01

-9.575000000000000178e-01

-9.324999999999999956e-01

-9.000000000000000222e-01

-8.699999999999999956e-01

-8.125000000000000000e-01

-7.574999999999999512e-01

-6.949999999999999512e-01

-6.250000000000000000e-01

-5.500000000000000444e-01

-4.749999999999999778e-01

-4.074999999999999734e-01

-3.325000000000000178e-01

-2.625000000000000111e-01

-1.875000000000000000e-01

-1.125000000000000028e-01

-4.499999999999999833e-02

4.499999999999999833e-02

1.074999999999999983e-01

1.625000000000000056e-01

2.200000000000000011e-01

2.625000000000000111e-01

2.999999999999999889e-01

3.325000000000000178e-01

3.624999999999999889e-01

3.875000000000000111e-01

4.124999999999999778e-01

4.249999999999999889e-01

4.375000000000000000e-01

4.450000000000000067e-01

4.450000000000000067e-01

4.450000000000000067e-01

4.450000000000000067e-01

4.375000000000000000e-01

4.324999999999999956e-01

4.199999999999999845e-01

4.124999999999999778e-01

4.074999999999999734e-01

3.950000000000000178e-01

3.875000000000000111e-01

3.825000000000000067e-01

3.750000000000000000e-01

3.699999999999999956e-01

3.499999999999999778e-01

3.574999999999999845e-01

3.449999999999999734e-01

3.699999999999999956e-01

3.200000000000000067e-01

2.999999999999999889e-01

2.874999999999999778e-01

2.750000000000000222e-01

2.700000000000000178e-01

2.575000000000000067e-01

2.625000000000000111e-01

2.575000000000000067e-01

2.500000000000000000e-01

2.500000000000000000e-01

2.449999999999999956e-01

2.575000000000000067e-01

2.700000000000000178e-01

2.824999999999999734e-01

2.949999999999999845e-01

2.949999999999999845e-01

2.874999999999999778e-01

2.824999999999999734e-01

2.874999999999999778e-01

3.125000000000000000e-01

3.574999999999999845e-01

4.199999999999999845e-01

4.575000000000000178e-01

4.949999999999999956e-01

5.124999999999999556e-01

5.200000000000000178e-01

5.374999999999999778e-01

5.450000000000000400e-01

5.250000000000000222e-01

5.124999999999999556e-01

4.824999999999999845e-01

4.450000000000000067e-01

3.950000000000000178e-01

3.499999999999999778e-01

3.125000000000000000e-01

2.874999999999999778e-01

2.700000000000000178e-01

2.575000000000000067e-01

2.449999999999999956e-01

2.325000000000000122e-01

2.250000000000000056e-01

2.200000000000000011e-01

2.124999999999999944e-01

2.074999999999999900e-01

2.000000000000000111e-01

1.875000000000000000e-01

1.875000000000000000e-01

1.875000000000000000e-01

1.875000000000000000e-01

1.824999999999999956e-01

1.875000000000000000e-01

1.749999999999999889e-01

1.824999999999999956e-01

1.950000000000000067e-01

2.449999999999999956e-01

3.125000000000000000e-01

4.000000000000000222e-01

5.074999999999999512e-01

6.324999999999999512e-01

7.700000000000000178e-01

9.324999999999999956e-01

1.100000000000000089e+00

1.287500000000000089e+00

1.462499999999999911e+00

1.612500000000000044e+00

1.750000000000000000e+00

1.862500000000000044e+00

1.969999999999999973e+00

2.049999999999999822e+00

2.107499999999999929e+00

2.162500000000000089e+00

2.225000000000000089e+00

2.282500000000000195e+00

2.312500000000000000e+00

2.287500000000000089e+00

2.225000000000000089e+00

2.125000000000000000e+00

2.007499999999999840e+00

1.875000000000000000e+00

1.725000000000000089e+00

1.562500000000000000e+00

1.387499999999999956e+00

1.212499999999999911e+00

1.062500000000000000e+00

9.000000000000000222e-01

7.199999999999999734e-01

5.200000000000000178e-01

2.999999999999999889e-01

6.250000000000000000e-02

-1.700000000000000122e-01

-3.499999999999999778e-01

-4.949999999999999956e-01

-5.825000000000000178e-01

-6.125000000000000444e-01

-6.199999999999999956e-01

-6.125000000000000444e-01

-6.374999999999999556e-01

-6.700000000000000400e-01

-7.249999999999999778e-01

-7.874999999999999778e-01

-8.499999999999999778e-01

-8.950000000000000178e-01

-9.200000000000000400e-01

-9.375000000000000000e-01

-9.375000000000000000e-01

-9.449999999999999512e-01

-9.575000000000000178e-01

-9.699999999999999734e-01

-9.625000000000000222e-01

-9.749999999999999778e-01

-9.825000000000000400e-01

-9.949999999999999956e-01

-1.007500000000000062e+00

-1.020000000000000018e+00

-1.024999999999999911e+00

-1.037500000000000089e+00

-1.037500000000000089e+00

-1.050000000000000044e+00

-1.062500000000000000e+00

-1.070000000000000062e+00

-1.074999999999999956e+00

-1.050000000000000044e+00

-1.044999999999999929e+00

-1.032499999999999973e+00

-1.024999999999999911e+00

-1.000000000000000000e+00

-9.749999999999999778e-01

-9.375000000000000000e-01

-9.000000000000000222e-01

-8.499999999999999778e-01

-8.000000000000000444e-01

-7.449999999999999956e-01

-6.824999999999999956e-01

-6.125000000000000444e-01

-5.450000000000000400e-01

-4.749999999999999778e-01

-4.000000000000000222e-01

-3.250000000000000111e-01

-2.575000000000000067e-01

-1.749999999999999889e-01

-1.000000000000000056e-01

-3.749999999999999861e-02

4.499999999999999833e-02

1.074999999999999983e-01

1.625000000000000056e-01

2.124999999999999944e-01

2.575000000000000067e-01

2.949999999999999845e-01

3.250000000000000111e-01

3.624999999999999889e-01

3.825000000000000067e-01

4.000000000000000222e-01

4.199999999999999845e-01

4.249999999999999889e-01

4.450000000000000067e-01

4.375000000000000000e-01

4.375000000000000000e-01

4.249999999999999889e-01

4.249999999999999889e-01

4.199999999999999845e-01

4.124999999999999778e-01

4.000000000000000222e-01

3.950000000000000178e-01

3.875000000000000111e-01

3.699999999999999956e-01

3.574999999999999845e-01

3.449999999999999734e-01

3.375000000000000222e-01

3.325000000000000178e-01

3.125000000000000000e-01

2.999999999999999889e-01

2.949999999999999845e-01

2.874999999999999778e-01

2.824999999999999734e-01

2.750000000000000222e-01

2.700000000000000178e-01

2.500000000000000000e-01

2.449999999999999956e-01

2.374999999999999889e-01

2.374999999999999889e-01

2.449999999999999956e-01

2.449999999999999956e-01

2.449999999999999956e-01

2.575000000000000067e-01

2.700000000000000178e-01

2.874999999999999778e-01

2.874999999999999778e-01

2.874999999999999778e-01

2.824999999999999734e-01

2.750000000000000222e-01

2.874999999999999778e-01

3.125000000000000000e-01

3.574999999999999845e-01

4.124999999999999778e-01

4.625000000000000222e-01

4.949999999999999956e-01

5.124999999999999556e-01

5.250000000000000222e-01

5.324999999999999734e-01

5.324999999999999734e-01

5.250000000000000222e-01

5.074999999999999512e-01

4.824999999999999845e-01

4.450000000000000067e-01

3.950000000000000178e-01

3.499999999999999778e-01

3.074999999999999956e-01

2.824999999999999734e-01

2.625000000000000111e-01

2.449999999999999956e-01

2.250000000000000056e-01

2.250000000000000056e-01

2.200000000000000011e-01

2.200000000000000011e-01

2.200000000000000011e-01

2.074999999999999900e-01

1.950000000000000067e-01

1.875000000000000000e-01

1.875000000000000000e-01

1.749999999999999889e-01

1.700000000000000122e-01

1.700000000000000122e-01

1.700000000000000122e-01

1.700000000000000122e-01

1.700000000000000122e-01

1.875000000000000000e-01

2.200000000000000011e-01

2.824999999999999734e-01

3.624999999999999889e-01

4.874999999999999889e-01

6.125000000000000444e-01

7.500000000000000000e-01

9.200000000000000400e-01

1.100000000000000089e+00

1.282499999999999973e+00

1.457500000000000018e+00

1.607499999999999929e+00

1.737500000000000044e+00

1.832500000000000018e+00

1.919999999999999929e+00

1.987500000000000044e+00

2.037500000000000089e+00

2.087499999999999911e+00

2.145000000000000018e+00

2.200000000000000178e+00

2.245000000000000107e+00

2.245000000000000107e+00

2.182500000000000107e+00

2.082500000000000018e+00

1.949999999999999956e+00

1.824999999999999956e+00

1.682500000000000107e+00

1.532499999999999973e+00

1.362500000000000044e+00

1.199999999999999956e+00

1.050000000000000044e+00

9.000000000000000222e-01

7.325000000000000400e-01

5.450000000000000400e-01

3.449999999999999734e-01

1.199999999999999956e-01

-1.125000000000000028e-01

-2.999999999999999889e-01

-4.500000000000000111e-01

-5.500000000000000444e-01

-5.949999999999999734e-01

-5.999999999999999778e-01

-6.075000000000000400e-01

-6.199999999999999956e-01

-6.574999999999999734e-01

-7.125000000000000222e-01

-7.750000000000000222e-01

-8.375000000000000222e-01

-8.750000000000000000e-01

-9.074999999999999734e-01

-9.250000000000000444e-01

-9.375000000000000000e-01

-9.449999999999999512e-01

-9.625000000000000222e-01

-9.625000000000000222e-01

-9.825000000000000400e-01

-9.949999999999999956e-01

-1.012499999999999956e+00

-1.024999999999999911e+00

-1.037500000000000089e+00

-1.037500000000000089e+00

-1.044999999999999929e+00

-1.050000000000000044e+00

-1.062500000000000000e+00

-1.070000000000000062e+00

-1.074999999999999956e+00

-1.082500000000000018e+00

-1.074999999999999956e+00

-1.070000000000000062e+00

-1.057500000000000107e+00

-1.050000000000000044e+00

-1.044999999999999929e+00

-1.020000000000000018e+00

-9.875000000000000444e-01

-9.575000000000000178e-01

-9.124999999999999778e-01

-8.750000000000000000e-01

-8.199999999999999512e-01

-7.624999999999999556e-01

-6.999999999999999556e-01

-6.374999999999999556e-01

-5.749999999999999556e-01

-5.200000000000000178e-01

-4.375000000000000000e-01

-3.624999999999999889e-01

-2.824999999999999734e-01

-2.074999999999999900e-01

-1.325000000000000067e-01

-6.250000000000000000e-02

2.500000000000000139e-02

8.749999999999999445e-02

1.375000000000000111e-01

1.875000000000000000e-01

2.374999999999999889e-01

2.824999999999999734e-01

3.125000000000000000e-01

3.449999999999999734e-01

3.699999999999999956e-01

3.875000000000000111e-01

4.000000000000000222e-01

4.074999999999999734e-01

4.124999999999999778e-01

4.124999999999999778e-01

4.124999999999999778e-01

4.124999999999999778e-01

4.074999999999999734e-01

4.000000000000000222e-01

3.825000000000000067e-01

3.699999999999999956e-01

3.574999999999999845e-01

3.499999999999999778e-01

3.375000000000000222e-01

3.375000000000000222e-01

3.250000000000000111e-01

3.200000000000000067e-01

3.125000000000000000e-01

3.074999999999999956e-01

2.949999999999999845e-01

2.949999999999999845e-01

2.824999999999999734e-01

2.750000000000000222e-01

2.575000000000000067e-01

2.500000000000000000e-01

2.374999999999999889e-01

2.325000000000000122e-01

2.200000000000000011e-01

2.074999999999999900e-01

2.000000000000000111e-01

2.000000000000000111e-01

2.200000000000000011e-01

2.250000000000000056e-01

2.449999999999999956e-01

2.575000000000000067e-01

2.750000000000000222e-01

2.824999999999999734e-01

2.874999999999999778e-01

2.700000000000000178e-01

2.750000000000000222e-01

2.874999999999999778e-01

3.250000000000000111e-01

3.750000000000000000e-01

4.249999999999999889e-01

4.699999999999999734e-01

5.000000000000000000e-01

5.074999999999999512e-01

5.074999999999999512e-01

5.074999999999999512e-01

5.074999999999999512e-01

4.949999999999999956e-01

4.749999999999999778e-01

4.450000000000000067e-01

4.000000000000000222e-01

3.574999999999999845e-01

3.125000000000000000e-01

2.824999999999999734e-01

2.500000000000000000e-01

2.374999999999999889e-01

2.200000000000000011e-01

2.124999999999999944e-01

2.000000000000000111e-01

2.074999999999999900e-01

2.074999999999999900e-01

2.000000000000000111e-01

1.875000000000000000e-01

1.875000000000000000e-01

1.824999999999999956e-01

1.749999999999999889e-01

1.700000000000000122e-01

1.700000000000000122e-01

1.625000000000000056e-01

1.625000000000000056e-01

1.700000000000000122e-01

1.749999999999999889e-01

2.124999999999999944e-01

2.700000000000000178e-01

3.624999999999999889e-01

4.749999999999999778e-01

5.949999999999999734e-01

7.249999999999999778e-01

8.874999999999999556e-01

1.070000000000000062e+00

1.262499999999999956e+00

1.445000000000000062e+00

1.600000000000000089e+00

1.745000000000000107e+00

1.857499999999999929e+00

1.949999999999999956e+00

2.037500000000000089e+00

2.095000000000000195e+00

2.145000000000000018e+00

2.207500000000000018e+00

2.270000000000000018e+00

2.307500000000000107e+00

2.307500000000000107e+00

2.250000000000000000e+00

2.149999999999999911e+00

2.044999999999999929e+00

1.919999999999999929e+00

1.782499999999999973e+00

1.612500000000000044e+00

1.449999999999999956e+00

1.274999999999999911e+00

1.120000000000000107e+00

9.575000000000000178e-01

7.874999999999999778e-01

5.875000000000000222e-01

3.750000000000000000e-01

1.449999999999999900e-01

-9.500000000000000111e-02

-2.874999999999999778e-01

-4.450000000000000067e-01

-5.500000000000000444e-01

-5.875000000000000222e-01

-5.999999999999999778e-01

-5.999999999999999778e-01

-6.125000000000000444e-01

-6.500000000000000222e-01

-7.075000000000000178e-01

-7.624999999999999556e-01

-8.249999999999999556e-01

-8.824999999999999512e-01

-9.074999999999999734e-01

-9.324999999999999956e-01

-9.375000000000000000e-01

-9.499999999999999556e-01

-9.575000000000000178e-01

-9.625000000000000222e-01

-9.699999999999999734e-01

-9.825000000000000400e-01

-9.875000000000000444e-01

-1.000000000000000000e+00

-1.012499999999999956e+00

-1.024999999999999911e+00

-1.037500000000000089e+00

-1.050000000000000044e+00

-1.062500000000000000e+00

-1.074999999999999956e+00

-1.074999999999999956e+00

-1.082500000000000018e+00

-1.074999999999999956e+00

-1.082500000000000018e+00

-1.074999999999999956e+00

-1.062500000000000000e+00

-1.044999999999999929e+00

-1.024999999999999911e+00

-1.000000000000000000e+00

-9.625000000000000222e-01

-9.250000000000000444e-01

-8.874999999999999556e-01

-8.499999999999999778e-01

-7.874999999999999778e-01

-7.325000000000000400e-01

-6.624999999999999778e-01

-5.999999999999999778e-01

-5.200000000000000178e-01

-4.450000000000000067e-01

-3.624999999999999889e-01

-2.874999999999999778e-01

-2.074999999999999900e-01

-1.375000000000000111e-01

-6.250000000000000000e-02

2.000000000000000042e-02

8.749999999999999445e-02

1.499999999999999944e-01

2.000000000000000111e-01

2.449999999999999956e-01

2.874999999999999778e-01

3.250000000000000111e-01

3.499999999999999778e-01

3.750000000000000000e-01

3.950000000000000178e-01

4.124999999999999778e-01

4.199999999999999845e-01

4.324999999999999956e-01

4.375000000000000000e-01

4.324999999999999956e-01

4.249999999999999889e-01

4.249999999999999889e-01

4.199999999999999845e-01

4.074999999999999734e-01

3.950000000000000178e-01

3.950000000000000178e-01

3.825000000000000067e-01

3.750000000000000000e-01

3.499999999999999778e-01

3.375000000000000222e-01

3.250000000000000111e-01

3.200000000000000067e-01

3.125000000000000000e-01

3.074999999999999956e-01

2.949999999999999845e-01

2.824999999999999734e-01

2.750000000000000222e-01

2.750000000000000222e-01

2.625000000000000111e-01

2.500000000000000000e-01

2.449999999999999956e-01

2.374999999999999889e-01

2.325000000000000122e-01

2.124999999999999944e-01

2.000000000000000111e-01

1.950000000000000067e-01

2.000000000000000111e-01

2.124999999999999944e-01

2.374999999999999889e-01

2.449999999999999956e-01

2.625000000000000111e-01

2.700000000000000178e-01

2.700000000000000178e-01

2.700000000000000178e-01

2.824999999999999734e-01

2.949999999999999845e-01

3.375000000000000222e-01

3.875000000000000111e-01

4.450000000000000067e-01

4.874999999999999889e-01

5.124999999999999556e-01

5.250000000000000222e-01

5.250000000000000222e-01

5.250000000000000222e-01

5.250000000000000222e-01

5.200000000000000178e-01

4.949999999999999956e-01

4.699999999999999734e-01

4.324999999999999956e-01

3.875000000000000111e-01

3.449999999999999734e-01

3.125000000000000000e-01

2.824999999999999734e-01

2.625000000000000111e-01

2.449999999999999956e-01

2.250000000000000056e-01

2.124999999999999944e-01

2.124999999999999944e-01

2.124999999999999944e-01

2.074999999999999900e-01

2.000000000000000111e-01

1.950000000000000067e-01

1.950000000000000067e-01

1.875000000000000000e-01

1.950000000000000067e-01

1.875000000000000000e-01

1.749999999999999889e-01

1.749999999999999889e-01

1.749999999999999889e-01

1.875000000000000000e-01

2.124999999999999944e-01

2.700000000000000178e-01

3.574999999999999845e-01

4.625000000000000222e-01

5.875000000000000222e-01

7.199999999999999734e-01

8.699999999999999956e-01

1.044999999999999929e+00

1.245000000000000107e+00

1.425000000000000044e+00

1.594999999999999973e+00

1.725000000000000089e+00

1.850000000000000089e+00

1.945000000000000062e+00

2.024999999999999911e+00

2.075000000000000178e+00

2.125000000000000000e+00

2.187500000000000000e+00

2.250000000000000000e+00

2.299999999999999822e+00

2.312500000000000000e+00

2.262500000000000178e+00

2.174999999999999822e+00

2.062500000000000000e+00

1.945000000000000062e+00

1.812500000000000000e+00

1.649999999999999911e+00

1.487500000000000044e+00

1.312500000000000000e+00

1.149999999999999911e+00

1.000000000000000000e+00

8.325000000000000178e-01

6.500000000000000222e-01

4.375000000000000000e-01

2.000000000000000111e-01

-4.499999999999999833e-02

-2.575000000000000067e-01

-4.199999999999999845e-01

-5.324999999999999734e-01

-5.825000000000000178e-01

-6.075000000000000400e-01

-6.075000000000000400e-01

-6.250000000000000000e-01

-6.574999999999999734e-01

-7.075000000000000178e-01

-7.700000000000000178e-01

-8.375000000000000222e-01

-8.874999999999999556e-01

-9.200000000000000400e-01

-9.324999999999999956e-01

-9.449999999999999512e-01

-9.499999999999999556e-01

-9.575000000000000178e-01

-9.749999999999999778e-01

-9.749999999999999778e-01

-9.825000000000000400e-01

-9.875000000000000444e-01

-1.000000000000000000e+00

-1.012499999999999956e+00

-1.020000000000000018e+00

-1.032499999999999973e+00

-1.050000000000000044e+00

-1.050000000000000044e+00

-1.057500000000000107e+00

-1.062500000000000000e+00

-1.074999999999999956e+00

-1.070000000000000062e+00

-1.070000000000000062e+00

-1.057500000000000107e+00

-1.050000000000000044e+00

-1.032499999999999973e+00

-1.020000000000000018e+00

-1.000000000000000000e+00

-9.625000000000000222e-01

-9.375000000000000000e-01

-9.000000000000000222e-01

-8.499999999999999778e-01

-7.874999999999999778e-01

-7.249999999999999778e-01

-6.624999999999999778e-01

-5.949999999999999734e-01

-5.250000000000000222e-01

-4.575000000000000178e-01

-3.875000000000000111e-01

-3.074999999999999956e-01

-2.250000000000000056e-01

-1.499999999999999944e-01

-7.499999999999999722e-02

1.250000000000000069e-02

7.499999999999999722e-02

1.250000000000000000e-01

1.824999999999999956e-01

2.250000000000000056e-01

2.700000000000000178e-01

2.999999999999999889e-01

3.375000000000000222e-01

3.624999999999999889e-01

3.825000000000000067e-01

3.950000000000000178e-01

4.124999999999999778e-01

4.199999999999999845e-01

4.249999999999999889e-01

4.249999999999999889e-01

4.199999999999999845e-01

4.199999999999999845e-01

4.124999999999999778e-01

4.000000000000000222e-01

3.950000000000000178e-01

3.875000000000000111e-01

3.750000000000000000e-01

3.699999999999999956e-01

3.499999999999999778e-01

3.499999999999999778e-01

3.499999999999999778e-01

3.375000000000000222e-01

3.250000000000000111e-01

3.200000000000000067e-01

3.074999999999999956e-01

2.999999999999999889e-01

2.949999999999999845e-01

2.750000000000000222e-01

2.625000000000000111e-01

2.500000000000000000e-01

2.449999999999999956e-01

2.325000000000000122e-01

2.325000000000000122e-01

2.250000000000000056e-01

2.200000000000000011e-01

2.124999999999999944e-01

2.124999999999999944e-01

2.124999999999999944e-01

2.200000000000000011e-01

2.374999999999999889e-01

2.575000000000000067e-01

2.700000000000000178e-01

2.750000000000000222e-01

2.700000000000000178e-01

2.750000000000000222e-01

2.824999999999999734e-01

3.074999999999999956e-01

3.449999999999999734e-01

4.000000000000000222e-01

4.450000000000000067e-01

4.874999999999999889e-01

5.200000000000000178e-01

5.324999999999999734e-01

5.374999999999999778e-01

5.374999999999999778e-01

5.324999999999999734e-01

5.200000000000000178e-01

4.874999999999999889e-01

4.625000000000000222e-01

4.249999999999999889e-01

3.825000000000000067e-01

3.375000000000000222e-01

2.949999999999999845e-01

2.700000000000000178e-01

2.449999999999999956e-01

2.325000000000000122e-01

2.124999999999999944e-01

2.000000000000000111e-01

1.950000000000000067e-01

1.875000000000000000e-01

1.824999999999999956e-01

1.749999999999999889e-01

1.625000000000000056e-01

1.700000000000000122e-01

1.625000000000000056e-01

1.625000000000000056e-01

1.575000000000000011e-01

1.499999999999999944e-01

1.449999999999999900e-01

1.449999999999999900e-01

1.625000000000000056e-01

1.875000000000000000e-01

2.374999999999999889e-01

3.074999999999999956e-01

4.124999999999999778e-01

5.324999999999999734e-01

6.700000000000000400e-01

8.249999999999999556e-01

1.007500000000000062e+00

1.199999999999999956e+00

1.387499999999999956e+00

1.557500000000000107e+00

1.699999999999999956e+00

1.824999999999999956e+00

1.932500000000000107e+00

2.020000000000000018e+00

2.082500000000000018e+00

2.125000000000000000e+00

2.187500000000000000e+00

2.257499999999999840e+00

2.312500000000000000e+00

2.325000000000000178e+00

2.299999999999999822e+00

2.207500000000000018e+00

2.100000000000000089e+00

1.975000000000000089e+00

1.837499999999999911e+00

1.682500000000000107e+00

1.520000000000000018e+00

1.350000000000000089e+00

1.187500000000000000e+00

1.032499999999999973e+00

8.625000000000000444e-01

6.750000000000000444e-01

4.625000000000000222e-01

2.325000000000000122e-01

0.000000000000000000e+00

-2.200000000000000011e-01

-3.875000000000000111e-01

-5.124999999999999556e-01

-5.749999999999999556e-01

-5.999999999999999778e-01

-6.075000000000000400e-01

-6.125000000000000444e-01

-6.500000000000000222e-01

-6.999999999999999556e-01

-7.574999999999999512e-01

-8.249999999999999556e-01

-8.750000000000000000e-01

-9.124999999999999778e-01

-9.449999999999999512e-01

-9.575000000000000178e-01

-9.699999999999999734e-01

-9.749999999999999778e-01

-9.825000000000000400e-01

-9.949999999999999956e-01

-1.000000000000000000e+00

-1.007500000000000062e+00

-1.020000000000000018e+00

-1.032499999999999973e+00

-1.037500000000000089e+00

-1.050000000000000044e+00

-1.050000000000000044e+00

-1.062500000000000000e+00

-1.070000000000000062e+00

-1.082500000000000018e+00

-1.074999999999999956e+00

-1.082500000000000018e+00

-1.074999999999999956e+00

-1.070000000000000062e+00

-1.057500000000000107e+00

-1.037500000000000089e+00

-1.020000000000000018e+00

-1.000000000000000000e+00

-9.699999999999999734e-01

-9.375000000000000000e-01

-9.000000000000000222e-01

-8.575000000000000400e-01

-8.000000000000000444e-01

-7.449999999999999956e-01

-6.750000000000000444e-01

-5.999999999999999778e-01

-5.374999999999999778e-01

-4.625000000000000222e-01

-3.875000000000000111e-01

-3.125000000000000000e-01

-2.374999999999999889e-01

-1.575000000000000011e-01

-8.749999999999999445e-02

7.499999999999999722e-03

7.000000000000000666e-02

1.375000000000000111e-01

1.875000000000000000e-01

2.374999999999999889e-01

2.700000000000000178e-01

3.074999999999999956e-01

3.375000000000000222e-01

3.624999999999999889e-01

3.875000000000000111e-01

4.074999999999999734e-01

4.249999999999999889e-01

4.324999999999999956e-01

4.375000000000000000e-01

4.375000000000000000e-01

4.324999999999999956e-01

4.249999999999999889e-01

4.249999999999999889e-01

4.249999999999999889e-01

4.199999999999999845e-01

4.000000000000000222e-01

3.950000000000000178e-01

3.825000000000000067e-01

3.699999999999999956e-01

3.499999999999999778e-01

3.499999999999999778e-01

3.375000000000000222e-01

3.250000000000000111e-01

3.200000000000000067e-01

3.125000000000000000e-01

2.999999999999999889e-01

2.874999999999999778e-01

2.750000000000000222e-01

2.700000000000000178e-01

2.575000000000000067e-01

2.500000000000000000e-01

2.500000000000000000e-01

2.374999999999999889e-01

2.250000000000000056e-01

2.250000000000000056e-01

2.200000000000000011e-01

2.200000000000000011e-01

2.200000000000000011e-01

2.250000000000000056e-01

2.374999999999999889e-01

2.500000000000000000e-01

2.700000000000000178e-01

2.824999999999999734e-01

2.874999999999999778e-01

2.824999999999999734e-01

2.874999999999999778e-01

2.999999999999999889e-01

3.375000000000000222e-01

3.950000000000000178e-01

4.500000000000000111e-01

4.949999999999999956e-01

5.324999999999999734e-01

5.450000000000000400e-01

5.500000000000000444e-01

5.500000000000000444e-01

5.450000000000000400e-01

5.374999999999999778e-01

5.200000000000000178e-01

4.874999999999999889e-01

4.450000000000000067e-01

4.000000000000000222e-01

3.574999999999999845e-01

3.250000000000000111e-01

2.999999999999999889e-01

2.874999999999999778e-01

2.625000000000000111e-01

2.500000000000000000e-01

2.449999999999999956e-01

2.325000000000000122e-01

2.250000000000000056e-01

2.200000000000000011e-01

2.124999999999999944e-01

2.074999999999999900e-01

1.950000000000000067e-01

1.950000000000000067e-01

1.875000000000000000e-01

1.824999999999999956e-01

1.749999999999999889e-01

1.749999999999999889e-01

1.700000000000000122e-01

1.875000000000000000e-01

2.074999999999999900e-01

2.449999999999999956e-01

3.074999999999999956e-01

4.000000000000000222e-01

5.124999999999999556e-01

6.374999999999999556e-01

7.824999999999999734e-01

9.499999999999999556e-01

1.145000000000000018e+00

1.344999999999999973e+00

1.532499999999999973e+00

1.682500000000000107e+00

1.812500000000000000e+00

1.919999999999999929e+00

2.012500000000000178e+00

2.087499999999999911e+00

2.137500000000000178e+00

2.187500000000000000e+00

2.270000000000000018e+00

2.319999999999999840e+00

2.357499999999999929e+00

2.350000000000000089e+00

2.312500000000000000e+00

2.182500000000000107e+00

2.062500000000000000e+00

1.932500000000000107e+00

1.774999999999999911e+00

1.600000000000000089e+00

1.425000000000000044e+00

1.250000000000000000e+00

1.094999999999999973e+00

9.250000000000000444e-01

7.449999999999999956e-01

5.374999999999999778e-01

3.125000000000000000e-01

7.499999999999999722e-02

-1.575000000000000011e-01

-3.499999999999999778e-01

-5.000000000000000000e-01

-5.949999999999999734e-01

-6.250000000000000000e-01

-6.250000000000000000e-01

-6.450000000000000178e-01

-6.574999999999999734e-01

-6.999999999999999556e-01

-7.574999999999999512e-01

-8.249999999999999556e-01

-8.824999999999999512e-01

-9.250000000000000444e-01

-9.499999999999999556e-01

-9.699999999999999734e-01

-9.749999999999999778e-01

-9.875000000000000444e-01

-9.949999999999999956e-01

-9.949999999999999956e-01

-1.000000000000000000e+00

-1.012499999999999956e+00

-1.024999999999999911e+00

-1.032499999999999973e+00

-1.050000000000000044e+00

-1.050000000000000044e+00

-1.057500000000000107e+00

-1.062500000000000000e+00

-1.074999999999999956e+00

-1.074999999999999956e+00

-1.082500000000000018e+00

-1.087499999999999911e+00

-1.094999999999999973e+00

-1.082500000000000018e+00

-1.074999999999999956e+00

-1.062500000000000000e+00

-1.037500000000000089e+00

-1.012499999999999956e+00

-9.825000000000000400e-01

-9.499999999999999556e-01

-9.124999999999999778e-01

-8.750000000000000000e-01

-8.249999999999999556e-01

-7.624999999999999556e-01

-6.999999999999999556e-01

-6.250000000000000000e-01

-5.574999999999999956e-01

-4.874999999999999889e-01

-4.124999999999999778e-01

-3.449999999999999734e-01

-2.575000000000000067e-01

-1.824999999999999956e-01

-1.000000000000000056e-01

-3.250000000000000111e-02

5.000000000000000278e-02

1.125000000000000028e-01

1.700000000000000122e-01

2.200000000000000011e-01

2.700000000000000178e-01

2.999999999999999889e-01

3.375000000000000222e-01

3.699999999999999956e-01

3.950000000000000178e-01

4.074999999999999734e-01

4.199999999999999845e-01

4.324999999999999956e-01

4.375000000000000000e-01

4.450000000000000067e-01

4.375000000000000000e-01

4.324999999999999956e-01

4.324999999999999956e-01

4.249999999999999889e-01

4.124999999999999778e-01

4.000000000000000222e-01

3.950000000000000178e-01

3.750000000000000000e-01

3.624999999999999889e-01

3.624999999999999889e-01

3.499999999999999778e-01

3.574999999999999845e-01

3.449999999999999734e-01

3.375000000000000222e-01

3.325000000000000178e-01

3.200000000000000067e-01

3.074999999999999956e-01

2.999999999999999889e-01

2.874999999999999778e-01

2.824999999999999734e-01

2.700000000000000178e-01

2.575000000000000067e-01

2.500000000000000000e-01

2.449999999999999956e-01

2.449999999999999956e-01

2.449999999999999956e-01

2.500000000000000000e-01

2.500000000000000000e-01

2.575000000000000067e-01

2.750000000000000222e-01

2.874999999999999778e-01

2.949999999999999845e-01

2.949999999999999845e-01

2.949999999999999845e-01

2.949999999999999845e-01

2.999999999999999889e-01

3.375000000000000222e-01

3.950000000000000178e-01

4.450000000000000067e-01

4.949999999999999956e-01

5.250000000000000222e-01

5.324999999999999734e-01

5.374999999999999778e-01

5.374999999999999778e-01

5.374999999999999778e-01

5.250000000000000222e-01

5.000000000000000000e-01

4.749999999999999778e-01

4.375000000000000000e-01

3.875000000000000111e-01

3.449999999999999734e-01

3.074999999999999956e-01

2.824999999999999734e-01

2.625000000000000111e-01

2.449999999999999956e-01

2.250000000000000056e-01

2.124999999999999944e-01

2.000000000000000111e-01

2.000000000000000111e-01

1.950000000000000067e-01

1.824999999999999956e-01

1.875000000000000000e-01

1.824999999999999956e-01

1.824999999999999956e-01

1.700000000000000122e-01

1.700000000000000122e-01

1.625000000000000056e-01

1.625000000000000056e-01

1.625000000000000056e-01

1.700000000000000122e-01

1.875000000000000000e-01

2.250000000000000056e-01

2.999999999999999889e-01

4.124999999999999778e-01

5.250000000000000222e-01

6.624999999999999778e-01

8.125000000000000000e-01

9.875000000000000444e-01

1.182500000000000107e+00

1.370000000000000107e+00

1.550000000000000044e+00

1.699999999999999956e+00

1.824999999999999956e+00

1.937500000000000000e+00

2.012500000000000178e+00

2.075000000000000178e+00

2.120000000000000107e+00

2.169999999999999929e+00

2.237499999999999822e+00

2.294999999999999929e+00

2.325000000000000178e+00

2.299999999999999822e+00

2.237499999999999822e+00

2.125000000000000000e+00

2.000000000000000000e+00

1.862500000000000044e+00

1.712499999999999911e+00

1.550000000000000044e+00

1.382500000000000062e+00

1.212499999999999911e+00

1.062500000000000000e+00

9.074999999999999734e-01

7.199999999999999734e-01

5.074999999999999512e-01

2.750000000000000222e-01

4.499999999999999833e-02

-2.000000000000000111e-01

-3.750000000000000000e-01

-5.124999999999999556e-01

-5.875000000000000222e-01

-6.199999999999999956e-01

-6.324999999999999512e-01

-6.500000000000000222e-01

-6.700000000000000400e-01

-7.199999999999999734e-01

-7.750000000000000222e-01

-8.375000000000000222e-01

-8.950000000000000178e-01

-9.449999999999999512e-01

-9.625000000000000222e-01

-9.749999999999999778e-01

-9.825000000000000400e-01

-9.875000000000000444e-01

-9.875000000000000444e-01

-1.000000000000000000e+00

-1.007500000000000062e+00

-1.012499999999999956e+00

-1.020000000000000018e+00

-1.024999999999999911e+00

-1.032499999999999973e+00

-1.037500000000000089e+00

-1.057500000000000107e+00

-1.062500000000000000e+00

-1.074999999999999956e+00

-1.074999999999999956e+00

-1.082500000000000018e+00

-1.074999999999999956e+00

-1.074999999999999956e+00

-1.070000000000000062e+00

-1.057500000000000107e+00

-1.044999999999999929e+00

-1.032499999999999973e+00

-1.020000000000000018e+00

-1.000000000000000000e+00

-9.699999999999999734e-01

-9.250000000000000444e-01

-8.750000000000000000e-01

-8.249999999999999556e-01

-7.700000000000000178e-01

-7.075000000000000178e-01

-6.450000000000000178e-01

-5.699999999999999512e-01

-5.000000000000000000e-01

-4.199999999999999845e-01

-3.449999999999999734e-01

-2.700000000000000178e-01

-1.950000000000000067e-01

-1.125000000000000028e-01

-4.499999999999999833e-02

4.499999999999999833e-02

1.000000000000000056e-01

1.575000000000000011e-01

2.000000000000000111e-01

2.575000000000000067e-01

2.949999999999999845e-01

3.325000000000000178e-01

3.499999999999999778e-01

3.750000000000000000e-01

3.875000000000000111e-01

4.000000000000000222e-01

4.074999999999999734e-01

4.124999999999999778e-01

4.124999999999999778e-01

4.199999999999999845e-01

4.124999999999999778e-01

4.074999999999999734e-01

4.074999999999999734e-01

3.950000000000000178e-01

3.875000000000000111e-01

3.750000000000000000e-01

3.624999999999999889e-01

3.499999999999999778e-01

3.449999999999999734e-01

3.375000000000000222e-01

3.250000000000000111e-01

3.200000000000000067e-01

3.125000000000000000e-01

3.074999999999999956e-01

2.999999999999999889e-01

2.874999999999999778e-01

2.750000000000000222e-01

2.625000000000000111e-01

2.500000000000000000e-01

2.449999999999999956e-01

2.374999999999999889e-01

2.200000000000000011e-01

2.124999999999999944e-01

2.200000000000000011e-01

2.124999999999999944e-01

2.200000000000000011e-01

2.250000000000000056e-01

2.374999999999999889e-01

2.449999999999999956e-01

2.575000000000000067e-01

2.700000000000000178e-01

2.750000000000000222e-01

2.750000000000000222e-01

2.750000000000000222e-01

2.874999999999999778e-01

3.074999999999999956e-01

3.449999999999999734e-01

3.950000000000000178e-01

4.450000000000000067e-01

4.874999999999999889e-01

5.074999999999999512e-01

5.250000000000000222e-01

5.250000000000000222e-01

5.250000000000000222e-01

5.200000000000000178e-01

5.074999999999999512e-01

4.749999999999999778e-01

4.450000000000000067e-01

4.074999999999999734e-01

3.574999999999999845e-01

3.200000000000000067e-01

2.874999999999999778e-01

2.575000000000000067e-01

2.325000000000000122e-01

2.124999999999999944e-01

2.000000000000000111e-01

2.074999999999999900e-01

2.000000000000000111e-01

1.950000000000000067e-01

1.875000000000000000e-01

1.875000000000000000e-01

1.749999999999999889e-01

1.824999999999999956e-01

1.749999999999999889e-01

1.749999999999999889e-01

1.625000000000000056e-01

1.625000000000000056e-01

1.499999999999999944e-01

1.575000000000000011e-01

1.700000000000000122e-01

2.074999999999999900e-01

2.575000000000000067e-01

3.375000000000000222e-01

4.450000000000000067e-01

5.749999999999999556e-01

7.199999999999999734e-01

8.824999999999999512e-01

1.062500000000000000e+00

1.257500000000000062e+00

1.449999999999999956e+00

1.620000000000000107e+00

1.770000000000000018e+00

1.895000000000000018e+00

1.987500000000000044e+00

2.062500000000000000e+00

2.120000000000000107e+00

2.162500000000000089e+00

2.225000000000000089e+00

2.294999999999999929e+00

2.345000000000000195e+00

2.350000000000000089e+00

2.319999999999999840e+00

2.232499999999999929e+00

2.120000000000000107e+00

1.987500000000000044e+00

1.837499999999999911e+00

1.662500000000000089e+00

1.500000000000000000e+00

1.320000000000000062e+00

1.162500000000000089e+00

1.007500000000000062e+00

8.325000000000000178e-01

6.374999999999999556e-01

4.124999999999999778e-01

1.700000000000000122e-01

-7.499999999999999722e-02

-2.750000000000000222e-01

-4.450000000000000067e-01

-5.574999999999999956e-01

-6.125000000000000444e-01

-6.250000000000000000e-01

-6.374999999999999556e-01

-6.500000000000000222e-01

-6.824999999999999956e-01

-7.249999999999999778e-01

-8.000000000000000444e-01

-8.699999999999999956e-01

-9.250000000000000444e-01

-9.625000000000000222e-01

-9.825000000000000400e-01

-9.875000000000000444e-01

-1.000000000000000000e+00

-1.007500000000000062e+00

-1.012499999999999956e+00

-1.024999999999999911e+00

-1.032499999999999973e+00

-1.044999999999999929e+00

-1.050000000000000044e+00

-1.057500000000000107e+00

-1.070000000000000062e+00

-1.082500000000000018e+00

-1.087499999999999911e+00

-1.100000000000000089e+00

-1.107499999999999929e+00

-1.107499999999999929e+00

-1.107499999999999929e+00

-1.107499999999999929e+00

-1.107499999999999929e+00

-1.100000000000000089e+00

-1.094999999999999973e+00

-1.082500000000000018e+00

-1.057500000000000107e+00

-1.032499999999999973e+00

-9.949999999999999956e-01

-9.575000000000000178e-01

-9.074999999999999734e-01

-8.575000000000000400e-01

-8.000000000000000444e-01

-7.500000000000000000e-01

-6.824999999999999956e-01

-6.075000000000000400e-01

-5.374999999999999778e-01

-4.575000000000000178e-01

-3.875000000000000111e-01

-3.125000000000000000e-01

-2.374999999999999889e-01

-1.575000000000000011e-01

-8.250000000000000389e-02

1.250000000000000069e-02

7.499999999999999722e-02

1.449999999999999900e-01

1.950000000000000067e-01

2.449999999999999956e-01

2.874999999999999778e-01

3.250000000000000111e-01

3.499999999999999778e-01

3.750000000000000000e-01

3.950000000000000178e-01

4.124999999999999778e-01

4.375000000000000000e-01

4.450000000000000067e-01

4.500000000000000111e-01

4.575000000000000178e-01

4.450000000000000067e-01

4.450000000000000067e-01

4.324999999999999956e-01

4.249999999999999889e-01

4.124999999999999778e-01

4.074999999999999734e-01

3.950000000000000178e-01

3.825000000000000067e-01

3.750000000000000000e-01

3.750000000000000000e-01

3.699999999999999956e-01

3.574999999999999845e-01

3.499999999999999778e-01

3.375000000000000222e-01

3.325000000000000178e-01

3.325000000000000178e-01

3.325000000000000178e-01

3.200000000000000067e-01

3.125000000000000000e-01

2.999999999999999889e-01

2.949999999999999845e-01

2.824999999999999734e-01

2.750000000000000222e-01

2.575000000000000067e-01

2.575000000000000067e-01

2.500000000000000000e-01

2.575000000000000067e-01

2.575000000000000067e-01

2.625000000000000111e-01

2.750000000000000222e-01

2.949999999999999845e-01

2.999999999999999889e-01

3.074999999999999956e-01

3.074999999999999956e-01

2.999999999999999889e-01

3.074999999999999956e-01

3.250000000000000111e-01

3.699999999999999956e-01

4.199999999999999845e-01

4.824999999999999845e-01

5.324999999999999734e-01

5.625000000000000000e-01

5.699999999999999512e-01

5.625000000000000000e-01

5.625000000000000000e-01

5.574999999999999956e-01

5.450000000000000400e-01

5.250000000000000222e-01

5.000000000000000000e-01

4.625000000000000222e-01

4.074999999999999734e-01

3.750000000000000000e-01

3.325000000000000178e-01

3.074999999999999956e-01

2.750000000000000222e-01

2.625000000000000111e-01

2.449999999999999956e-01

2.449999999999999956e-01

2.374999999999999889e-01

2.325000000000000122e-01

2.374999999999999889e-01

2.250000000000000056e-01

2.200000000000000011e-01

2.074999999999999900e-01

1.950000000000000067e-01

1.950000000000000067e-01

1.950000000000000067e-01

1.875000000000000000e-01

1.875000000000000000e-01

1.875000000000000000e-01

1.950000000000000067e-01

2.124999999999999944e-01

2.700000000000000178e-01

3.375000000000000222e-01

4.375000000000000000e-01

5.574999999999999956e-01

6.999999999999999556e-01

8.499999999999999778e-01

1.024999999999999911e+00

1.225000000000000089e+00

1.425000000000000044e+00

1.600000000000000089e+00

1.750000000000000000e+00

1.875000000000000000e+00

1.982499999999999929e+00

2.069999999999999840e+00

2.125000000000000000e+00

2.169999999999999929e+00

2.225000000000000089e+00

2.294999999999999929e+00

2.350000000000000089e+00

2.382499999999999840e+00

2.350000000000000089e+00

2.274999999999999911e+00

2.162500000000000089e+00

2.037500000000000089e+00

1.899999999999999911e+00

1.750000000000000000e+00

1.582500000000000018e+00

1.407499999999999973e+00

1.237500000000000044e+00

1.087499999999999911e+00

9.200000000000000400e-01

7.199999999999999734e-01

5.124999999999999556e-01

2.750000000000000222e-01

3.250000000000000111e-02

-2.000000000000000111e-01

-3.825000000000000067e-01

-5.124999999999999556e-01

-5.875000000000000222e-01

-6.075000000000000400e-01

-6.125000000000000444e-01

-6.324999999999999512e-01

-6.574999999999999734e-01

-7.075000000000000178e-01

-7.750000000000000222e-01

-8.499999999999999778e-01

-9.000000000000000222e-01

-9.449999999999999512e-01

-9.625000000000000222e-01

-9.749999999999999778e-01

-9.749999999999999778e-01

-9.825000000000000400e-01

-9.949999999999999956e-01

-9.949999999999999956e-01

-1.000000000000000000e+00

-1.012499999999999956e+00

-1.032499999999999973e+00

-1.044999999999999929e+00

-1.057500000000000107e+00

-1.074999999999999956e+00

-1.082500000000000018e+00

-1.087499999999999911e+00

-1.094999999999999973e+00

-1.094999999999999973e+00

-1.094999999999999973e+00

-1.107499999999999929e+00

-1.100000000000000089e+00

-1.094999999999999973e+00

-1.082500000000000018e+00

-1.074999999999999956e+00

-1.057500000000000107e+00

-1.037500000000000089e+00

-1.012499999999999956e+00

-9.749999999999999778e-01

-9.375000000000000000e-01

-8.824999999999999512e-01

-8.375000000000000222e-01

-7.824999999999999734e-01

-7.125000000000000222e-01

-6.500000000000000222e-01

-5.699999999999999512e-01

-4.949999999999999956e-01

-4.124999999999999778e-01

-3.325000000000000178e-01

-2.575000000000000067e-01

-1.749999999999999889e-01

-1.000000000000000056e-01

-3.250000000000000111e-02

5.000000000000000278e-02

1.125000000000000028e-01

1.700000000000000122e-01

2.200000000000000011e-01

2.625000000000000111e-01

2.999999999999999889e-01

3.325000000000000178e-01

3.499999999999999778e-01

3.825000000000000067e-01

3.950000000000000178e-01

4.074999999999999734e-01

4.249999999999999889e-01

4.450000000000000067e-01

4.375000000000000000e-01

4.375000000000000000e-01

4.324999999999999956e-01

4.199999999999999845e-01

4.124999999999999778e-01

4.074999999999999734e-01

4.000000000000000222e-01

3.950000000000000178e-01

3.825000000000000067e-01

3.750000000000000000e-01

3.624999999999999889e-01

3.499999999999999778e-01

3.449999999999999734e-01

3.375000000000000222e-01

3.200000000000000067e-01

3.074999999999999956e-01

2.999999999999999889e-01

2.949999999999999845e-01

2.874999999999999778e-01

2.750000000000000222e-01

2.750000000000000222e-01

2.625000000000000111e-01

2.449999999999999956e-01

2.325000000000000122e-01

2.250000000000000056e-01

2.074999999999999900e-01

2.074999999999999900e-01

1.950000000000000067e-01

1.950000000000000067e-01

2.000000000000000111e-01

2.200000000000000011e-01

2.325000000000000122e-01

2.500000000000000000e-01

2.625000000000000111e-01

2.750000000000000222e-01

2.750000000000000222e-01

2.700000000000000178e-01

2.750000000000000222e-01

2.874999999999999778e-01

3.200000000000000067e-01

3.699999999999999956e-01

4.249999999999999889e-01

4.749999999999999778e-01

5.124999999999999556e-01

5.324999999999999734e-01

5.500000000000000444e-01

5.450000000000000400e-01

5.500000000000000444e-01

5.374999999999999778e-01

5.200000000000000178e-01

4.874999999999999889e-01

4.500000000000000111e-01

4.000000000000000222e-01

3.574999999999999845e-01

3.200000000000000067e-01

2.949999999999999845e-01

2.750000000000000222e-01

2.500000000000000000e-01

2.374999999999999889e-01

2.250000000000000056e-01

2.200000000000000011e-01

2.200000000000000011e-01

2.200000000000000011e-01

2.124999999999999944e-01

2.124999999999999944e-01

2.124999999999999944e-01

2.000000000000000111e-01

1.950000000000000067e-01

1.950000000000000067e-01

1.875000000000000000e-01

1.875000000000000000e-01

1.824999999999999956e-01

1.875000000000000000e-01

1.950000000000000067e-01

2.449999999999999956e-01

3.074999999999999956e-01

4.000000000000000222e-01

5.200000000000000178e-01

6.500000000000000222e-01

8.000000000000000444e-01

9.749999999999999778e-01

1.175000000000000044e+00

1.375000000000000000e+00

1.570000000000000062e+00

1.719999999999999973e+00

1.862500000000000044e+00

1.975000000000000089e+00

2.062500000000000000e+00

2.137500000000000178e+00

2.182500000000000107e+00

2.232499999999999929e+00

2.299999999999999822e+00

2.362499999999999822e+00

2.399999999999999911e+00

2.387500000000000178e+00

2.325000000000000178e+00

2.220000000000000195e+00

2.100000000000000089e+00

1.962499999999999911e+00

1.812500000000000000e+00

1.637499999999999956e+00

1.469999999999999973e+00

1.300000000000000044e+00

1.145000000000000018e+00

9.699999999999999734e-01

7.824999999999999734e-01

5.749999999999999556e-01

3.375000000000000222e-01

1.000000000000000056e-01

-1.449999999999999900e-01

-3.375000000000000222e-01

-4.949999999999999956e-01

-5.875000000000000222e-01

-6.250000000000000000e-01

-6.250000000000000000e-01

-6.450000000000000178e-01

-6.624999999999999778e-01

-6.999999999999999556e-01

-7.574999999999999512e-01

-8.325000000000000178e-01

-8.950000000000000178e-01

-9.375000000000000000e-01

-9.575000000000000178e-01

-9.749999999999999778e-01

-9.825000000000000400e-01

-9.825000000000000400e-01

-9.949999999999999956e-01

-1.007500000000000062e+00

-1.020000000000000018e+00

-1.037500000000000089e+00

-1.037500000000000089e+00

-1.050000000000000044e+00

-1.062500000000000000e+00

-1.074999999999999956e+00

-1.087499999999999911e+00

-1.100000000000000089e+00

-1.107499999999999929e+00

-1.107499999999999929e+00

-1.112500000000000044e+00

-1.107499999999999929e+00

-1.100000000000000089e+00

-1.094999999999999973e+00

-1.087499999999999911e+00

-1.082500000000000018e+00

-1.062500000000000000e+00

-1.037500000000000089e+00

-1.012499999999999956e+00

-9.699999999999999734e-01

-9.324999999999999956e-01

-8.824999999999999512e-01

-8.375000000000000222e-01

-7.700000000000000178e-01

-7.125000000000000222e-01

-6.450000000000000178e-01

-5.749999999999999556e-01

-5.000000000000000000e-01

-4.375000000000000000e-01

-3.574999999999999845e-01

-2.750000000000000222e-01

-2.000000000000000111e-01

-1.199999999999999956e-01

-5.000000000000000278e-02

3.250000000000000111e-02

9.500000000000000111e-02

1.499999999999999944e-01

2.074999999999999900e-01

2.625000000000000111e-01

2.999999999999999889e-01

3.375000000000000222e-01

3.624999999999999889e-01

3.875000000000000111e-01

4.074999999999999734e-01

4.249999999999999889e-01

4.375000000000000000e-01

4.500000000000000111e-01

4.450000000000000067e-01

4.500000000000000111e-01

4.450000000000000067e-01

4.450000000000000067e-01

4.324999999999999956e-01

4.199999999999999845e-01

4.074999999999999734e-01

3.950000000000000178e-01

3.950000000000000178e-01

3.950000000000000178e-01

3.875000000000000111e-01

3.825000000000000067e-01

3.750000000000000000e-01

3.574999999999999845e-01

3.499999999999999778e-01

3.375000000000000222e-01

3.250000000000000111e-01

3.125000000000000000e-01

2.999999999999999889e-01

2.949999999999999845e-01

2.874999999999999778e-01

2.824999999999999734e-01

2.750000000000000222e-01

2.700000000000000178e-01

2.700000000000000178e-01

2.500000000000000000e-01

2.449999999999999956e-01

2.374999999999999889e-01

2.250000000000000056e-01

2.200000000000000011e-01

2.200000000000000011e-01

2.374999999999999889e-01

2.500000000000000000e-01

2.700000000000000178e-01

2.824999999999999734e-01

2.874999999999999778e-01

2.949999999999999845e-01

2.999999999999999889e-01

3.074999999999999956e-01

3.250000000000000111e-01

3.449999999999999734e-01

3.950000000000000178e-01

4.500000000000000111e-01

5.000000000000000000e-01

5.324999999999999734e-01

5.500000000000000444e-01

5.500000000000000444e-01

5.574999999999999956e-01

5.574999999999999956e-01

5.450000000000000400e-01

5.250000000000000222e-01

4.949999999999999956e-01

4.575000000000000178e-01

4.124999999999999778e-01

3.699999999999999956e-01

3.325000000000000178e-01

2.999999999999999889e-01

2.750000000000000222e-01

2.500000000000000000e-01

2.374999999999999889e-01

2.374999999999999889e-01

2.250000000000000056e-01

2.325000000000000122e-01

2.250000000000000056e-01

2.250000000000000056e-01

2.200000000000000011e-01

2.200000000000000011e-01

2.074999999999999900e-01

1.950000000000000067e-01

1.950000000000000067e-01

1.875000000000000000e-01

1.875000000000000000e-01

1.875000000000000000e-01

1.875000000000000000e-01

2.124999999999999944e-01

2.449999999999999956e-01

3.125000000000000000e-01

4.074999999999999734e-01

5.250000000000000222e-01

6.500000000000000222e-01

7.874999999999999778e-01

9.575000000000000178e-01

1.149999999999999911e+00

1.357499999999999929e+00

1.550000000000000044e+00

1.707500000000000018e+00

1.837499999999999911e+00

1.945000000000000062e+00

2.032500000000000195e+00

2.100000000000000089e+00

2.145000000000000018e+00

2.194999999999999840e+00

2.257499999999999840e+00

2.319999999999999840e+00

2.350000000000000089e+00

2.345000000000000195e+00

2.287500000000000089e+00

2.194999999999999840e+00

2.062500000000000000e+00

1.937500000000000000e+00

1.774999999999999911e+00

1.607499999999999929e+00

1.437500000000000000e+00

1.270000000000000018e+00

1.112500000000000044e+00

9.499999999999999556e-01

7.624999999999999556e-01

5.625000000000000000e-01

3.325000000000000178e-01

9.500000000000000111e-02

-1.375000000000000111e-01

-3.250000000000000111e-01

-4.749999999999999778e-01

-5.699999999999999512e-01

-6.075000000000000400e-01

-6.125000000000000444e-01

-6.250000000000000000e-01

-6.450000000000000178e-01

-6.875000000000000000e-01

-7.449999999999999956e-01

-8.000000000000000444e-01

-8.699999999999999956e-01

-9.124999999999999778e-01

-9.499999999999999556e-01

-9.625000000000000222e-01

-9.749999999999999778e-01

-9.749999999999999778e-01

-9.825000000000000400e-01

-9.749999999999999778e-01

-9.949999999999999956e-01

-1.000000000000000000e+00

-1.012499999999999956e+00

-1.024999999999999911e+00

-1.037500000000000089e+00

-1.044999999999999929e+00

-1.057500000000000107e+00

-1.074999999999999956e+00

-1.082500000000000018e+00

-1.094999999999999973e+00

-1.100000000000000089e+00

-1.100000000000000089e+00

-1.100000000000000089e+00

-1.087499999999999911e+00

-1.087499999999999911e+00

-1.082500000000000018e+00

-1.062500000000000000e+00

-1.044999999999999929e+00

-1.012499999999999956e+00

-9.875000000000000444e-01

-9.499999999999999556e-01

-9.074999999999999734e-01

-8.575000000000000400e-01

-8.000000000000000444e-01

-7.449999999999999956e-01

-6.824999999999999956e-01

-5.999999999999999778e-01

-5.324999999999999734e-01

-4.575000000000000178e-01

-3.825000000000000067e-01

-3.125000000000000000e-01

-2.500000000000000000e-01

-1.700000000000000122e-01

-1.000000000000000056e-01

-2.500000000000000139e-02

6.250000000000000000e-02

1.199999999999999956e-01

1.824999999999999956e-01

2.250000000000000056e-01

2.700000000000000178e-01

2.999999999999999889e-01

3.250000000000000111e-01

3.449999999999999734e-01

3.699999999999999956e-01

3.825000000000000067e-01

3.950000000000000178e-01

4.074999999999999734e-01

4.124999999999999778e-01

4.199999999999999845e-01

4.124999999999999778e-01

4.124999999999999778e-01

4.074999999999999734e-01

3.950000000000000178e-01

3.875000000000000111e-01

3.699999999999999956e-01

3.624999999999999889e-01

3.624999999999999889e-01

3.624999999999999889e-01

3.499999999999999778e-01

3.449999999999999734e-01

3.250000000000000111e-01

3.074999999999999956e-01

2.999999999999999889e-01

2.949999999999999845e-01

2.874999999999999778e-01

2.750000000000000222e-01

2.750000000000000222e-01

2.700000000000000178e-01

2.500000000000000000e-01

2.374999999999999889e-01

2.325000000000000122e-01

2.250000000000000056e-01

2.200000000000000011e-01

2.074999999999999900e-01

2.074999999999999900e-01

2.074999999999999900e-01

2.124999999999999944e-01

2.200000000000000011e-01

2.325000000000000122e-01

2.449999999999999956e-01

2.575000000000000067e-01

2.625000000000000111e-01

2.625000000000000111e-01

2.575000000000000067e-01

2.625000000000000111e-01

2.874999999999999778e-01

3.250000000000000111e-01

3.825000000000000067e-01

4.375000000000000000e-01

4.824999999999999845e-01

5.000000000000000000e-01

5.200000000000000178e-01

5.200000000000000178e-01

5.250000000000000222e-01

5.324999999999999734e-01

5.200000000000000178e-01

4.874999999999999889e-01

4.575000000000000178e-01

4.124999999999999778e-01

3.624999999999999889e-01

3.200000000000000067e-01

2.874999999999999778e-01

2.625000000000000111e-01

2.449999999999999956e-01

2.250000000000000056e-01

2.200000000000000011e-01

2.074999999999999900e-01

2.000000000000000111e-01

2.000000000000000111e-01

1.950000000000000067e-01

1.950000000000000067e-01

1.950000000000000067e-01

1.875000000000000000e-01

1.875000000000000000e-01

1.824999999999999956e-01

1.749999999999999889e-01

1.749999999999999889e-01

1.700000000000000122e-01

1.749999999999999889e-01

1.824999999999999956e-01

2.074999999999999900e-01

2.500000000000000000e-01

3.325000000000000178e-01

4.249999999999999889e-01

5.500000000000000444e-01

6.824999999999999956e-01

8.449999999999999734e-01

1.024999999999999911e+00

1.225000000000000089e+00

1.425000000000000044e+00

1.600000000000000089e+00

1.757500000000000062e+00

1.887499999999999956e+00

1.987500000000000044e+00

2.075000000000000178e+00

2.132499999999999840e+00

2.182500000000000107e+00

2.237499999999999822e+00

2.307500000000000107e+00

2.362499999999999822e+00

2.387500000000000178e+00

2.370000000000000107e+00

2.287500000000000089e+00

2.174999999999999822e+00

2.049999999999999822e+00

1.907499999999999973e+00

1.737500000000000044e+00

1.574999999999999956e+00

1.399999999999999911e+00

1.237500000000000044e+00

1.074999999999999956e+00

9.074999999999999734e-01

7.125000000000000222e-01

5.000000000000000000e-01

2.700000000000000178e-01

3.250000000000000111e-02

-2.074999999999999900e-01

-3.950000000000000178e-01

-5.374999999999999778e-01

-6.125000000000000444e-01

-6.324999999999999512e-01

-6.450000000000000178e-01

-6.574999999999999734e-01

-6.750000000000000444e-01

-7.199999999999999734e-01

-7.874999999999999778e-01

-8.575000000000000400e-01

-9.124999999999999778e-01

-9.575000000000000178e-01

-9.825000000000000400e-01

-9.875000000000000444e-01

-9.875000000000000444e-01

-9.949999999999999956e-01

-1.007500000000000062e+00

-1.007500000000000062e+00

-1.020000000000000018e+00

-1.032499999999999973e+00

-1.037500000000000089e+00

-1.050000000000000044e+00

-1.062500000000000000e+00

-1.070000000000000062e+00

-1.087499999999999911e+00

-1.100000000000000089e+00

-1.107499999999999929e+00

-1.107499999999999929e+00

-1.107499999999999929e+00

-1.107499999999999929e+00

-1.112500000000000044e+00

-1.112500000000000044e+00

-1.107499999999999929e+00

-1.087499999999999911e+00

-1.070000000000000062e+00

-1.044999999999999929e+00

-1.012499999999999956e+00

-9.825000000000000400e-01

-9.375000000000000000e-01

-9.000000000000000222e-01

-8.449999999999999734e-01

-7.874999999999999778e-01

-7.125000000000000222e-01

-6.500000000000000222e-01

-5.825000000000000178e-01

-5.124999999999999556e-01

-4.249999999999999889e-01

-3.499999999999999778e-01

-2.625000000000000111e-01

-1.875000000000000000e-01

-1.199999999999999956e-01

-5.000000000000000278e-02

3.749999999999999861e-02

1.000000000000000056e-01

1.625000000000000056e-01

2.124999999999999944e-01

2.575000000000000067e-01

2.999999999999999889e-01

3.325000000000000178e-01

3.574999999999999845e-01

3.750000000000000000e-01

3.950000000000000178e-01

4.199999999999999845e-01

4.375000000000000000e-01

4.375000000000000000e-01

4.450000000000000067e-01

4.450000000000000067e-01

4.450000000000000067e-01

4.450000000000000067e-01

4.450000000000000067e-01

4.375000000000000000e-01

4.199999999999999845e-01

4.000000000000000222e-01

3.875000000000000111e-01

3.750000000000000000e-01

3.624999999999999889e-01

3.574999999999999845e-01

3.499999999999999778e-01

3.449999999999999734e-01

3.325000000000000178e-01

3.200000000000000067e-01

3.125000000000000000e-01

3.125000000000000000e-01

2.999999999999999889e-01

2.999999999999999889e-01

2.824999999999999734e-01

2.750000000000000222e-01

2.625000000000000111e-01

2.625000000000000111e-01

2.500000000000000000e-01

2.500000000000000000e-01

2.449999999999999956e-01

2.374999999999999889e-01

2.250000000000000056e-01

2.200000000000000011e-01

2.074999999999999900e-01

2.124999999999999944e-01

2.200000000000000011e-01

2.325000000000000122e-01

2.500000000000000000e-01

2.700000000000000178e-01

2.874999999999999778e-01

2.949999999999999845e-01

2.999999999999999889e-01

2.999999999999999889e-01

2.999999999999999889e-01

3.375000000000000222e-01

3.875000000000000111e-01

4.375000000000000000e-01

4.949999999999999956e-01

5.250000000000000222e-01

5.500000000000000444e-01

5.500000000000000444e-01

5.574999999999999956e-01

5.500000000000000444e-01

5.500000000000000444e-01

5.324999999999999734e-01

5.124999999999999556e-01

4.874999999999999889e-01

4.450000000000000067e-01

3.950000000000000178e-01

3.499999999999999778e-01

3.125000000000000000e-01

2.949999999999999845e-01

2.750000000000000222e-01

2.625000000000000111e-01

2.575000000000000067e-01

2.449999999999999956e-01

2.374999999999999889e-01

2.325000000000000122e-01

2.250000000000000056e-01

2.200000000000000011e-01

2.200000000000000011e-01

2.124999999999999944e-01

2.074999999999999900e-01

2.000000000000000111e-01

2.000000000000000111e-01

1.950000000000000067e-01

1.950000000000000067e-01

1.824999999999999956e-01

1.950000000000000067e-01

2.250000000000000056e-01

2.824999999999999734e-01

3.574999999999999845e-01

4.625000000000000222e-01

5.825000000000000178e-01

7.125000000000000222e-01

8.750000000000000000e-01

1.062500000000000000e+00

1.262499999999999956e+00

1.457500000000000018e+00

1.632500000000000062e+00

1.794999999999999929e+00

1.925000000000000044e+00

2.024999999999999911e+00

2.112499999999999822e+00

2.169999999999999929e+00

2.207500000000000018e+00

2.257499999999999840e+00

2.325000000000000178e+00

2.382499999999999840e+00

2.412500000000000089e+00

2.387500000000000178e+00

2.319999999999999840e+00

2.200000000000000178e+00

2.075000000000000178e+00

1.925000000000000044e+00

1.774999999999999911e+00

1.594999999999999973e+00

1.419999999999999929e+00

1.237500000000000044e+00

1.082500000000000018e+00

9.124999999999999778e-01

7.125000000000000222e-01

5.000000000000000000e-01

2.575000000000000067e-01

1.250000000000000069e-02

-2.250000000000000056e-01

-4.074999999999999734e-01

-5.500000000000000444e-01

-6.199999999999999956e-01

-6.450000000000000178e-01

-6.500000000000000222e-01

-6.700000000000000400e-01

-6.949999999999999512e-01

-7.449999999999999956e-01

-8.000000000000000444e-01

-8.750000000000000000e-01

-9.250000000000000444e-01

-9.749999999999999778e-01

-9.949999999999999956e-01

-1.000000000000000000e+00

-1.000000000000000000e+00

-1.007500000000000062e+00

-1.012499999999999956e+00

-1.024999999999999911e+00

-1.024999999999999911e+00

-1.037500000000000089e+00

-1.044999999999999929e+00

-1.050000000000000044e+00

-1.062500000000000000e+00

-1.074999999999999956e+00

-1.082500000000000018e+00

-1.087499999999999911e+00

-1.100000000000000089e+00

-1.107499999999999929e+00

-1.107499999999999929e+00

-1.107499999999999929e+00

-1.112500000000000044e+00

-1.107499999999999929e+00

-1.100000000000000089e+00

-1.087499999999999911e+00

-1.074999999999999956e+00

-1.057500000000000107e+00

-1.032499999999999973e+00

-9.949999999999999956e-01

-9.575000000000000178e-01

-9.074999999999999734e-01

-8.575000000000000400e-01

-7.874999999999999778e-01

-7.249999999999999778e-01

-6.574999999999999734e-01

-5.949999999999999734e-01

-5.200000000000000178e-01

-4.375000000000000000e-01

-3.574999999999999845e-01

-2.824999999999999734e-01

-2.074999999999999900e-01

-1.325000000000000067e-01

-6.250000000000000000e-02

2.000000000000000042e-02

8.749999999999999445e-02

1.575000000000000011e-01

2.074999999999999900e-01

2.575000000000000067e-01

2.824999999999999734e-01

3.074999999999999956e-01

3.325000000000000178e-01

3.624999999999999889e-01

3.825000000000000067e-01

3.950000000000000178e-01

4.000000000000000222e-01

4.124999999999999778e-01

4.074999999999999734e-01

4.124999999999999778e-01

4.074999999999999734e-01

4.124999999999999778e-01

4.000000000000000222e-01

3.950000000000000178e-01

3.875000000000000111e-01

3.750000000000000000e-01

3.750000000000000000e-01

3.699999999999999956e-01

3.624999999999999889e-01

3.499999999999999778e-01

3.449999999999999734e-01

3.375000000000000222e-01

3.325000000000000178e-01

3.250000000000000111e-01

3.200000000000000067e-01

3.125000000000000000e-01

3.074999999999999956e-01

2.999999999999999889e-01

2.949999999999999845e-01

2.824999999999999734e-01

2.625000000000000111e-01

2.449999999999999956e-01

2.374999999999999889e-01

2.250000000000000056e-01

2.124999999999999944e-01

2.000000000000000111e-01

2.000000000000000111e-01

1.950000000000000067e-01

1.950000000000000067e-01

1.950000000000000067e-01

1.950000000000000067e-01

2.074999999999999900e-01

2.200000000000000011e-01

2.449999999999999956e-01

2.575000000000000067e-01

2.700000000000000178e-01

2.750000000000000222e-01

2.824999999999999734e-01

2.874999999999999778e-01

3.125000000000000000e-01

3.499999999999999778e-01

4.074999999999999734e-01

4.625000000000000222e-01

5.074999999999999512e-01

5.324999999999999734e-01

5.450000000000000400e-01

5.450000000000000400e-01

5.574999999999999956e-01

5.500000000000000444e-01

5.324999999999999734e-01

5.074999999999999512e-01

4.749999999999999778e-01

4.249999999999999889e-01

3.750000000000000000e-01

3.325000000000000178e-01

3.074999999999999956e-01

2.750000000000000222e-01

2.575000000000000067e-01

2.374999999999999889e-01

2.250000000000000056e-01

2.200000000000000011e-01

2.200000000000000011e-01

2.200000000000000011e-01

2.074999999999999900e-01

2.000000000000000111e-01

1.950000000000000067e-01

1.950000000000000067e-01

1.875000000000000000e-01

1.824999999999999956e-01

1.749999999999999889e-01

1.749999999999999889e-01

1.700000000000000122e-01

1.749999999999999889e-01

1.824999999999999956e-01

2.000000000000000111e-01

2.374999999999999889e-01

3.125000000000000000e-01

4.074999999999999734e-01

5.324999999999999734e-01

6.624999999999999778e-01

8.199999999999999512e-01

1.000000000000000000e+00

1.199999999999999956e+00

1.399999999999999911e+00

1.587499999999999911e+00

1.745000000000000107e+00

1.870000000000000107e+00

1.982499999999999929e+00

2.069999999999999840e+00

2.132499999999999840e+00

2.174999999999999822e+00

2.225000000000000089e+00

2.294999999999999929e+00

2.357499999999999929e+00

2.399999999999999911e+00

2.395000000000000018e+00

2.319999999999999840e+00

2.212499999999999911e+00

2.087499999999999911e+00

1.957500000000000018e+00

1.787500000000000089e+00

1.620000000000000107e+00

1.445000000000000062e+00

1.274999999999999911e+00

1.120000000000000107e+00

9.575000000000000178e-01

7.624999999999999556e-01

5.574999999999999956e-01

3.250000000000000111e-01

8.250000000000000389e-02

-1.625000000000000056e-01

-3.574999999999999845e-01

-5.074999999999999512e-01

-5.999999999999999778e-01

-6.324999999999999512e-01

-6.450000000000000178e-01

-6.500000000000000222e-01

-6.750000000000000444e-01

-7.199999999999999734e-01

-7.874999999999999778e-01

-8.575000000000000400e-01

-9.200000000000000400e-01

-9.575000000000000178e-01

-9.825000000000000400e-01

-1.000000000000000000e+00

-1.007500000000000062e+00

-1.012499999999999956e+00

-1.020000000000000018e+00

-1.024999999999999911e+00

-1.037500000000000089e+00

-1.044999999999999929e+00

-1.057500000000000107e+00

-1.062500000000000000e+00

-1.074999999999999956e+00

-1.087499999999999911e+00

-1.100000000000000089e+00

-1.107499999999999929e+00

-1.120000000000000107e+00

-1.132500000000000062e+00

-1.137499999999999956e+00

-1.137499999999999956e+00

-1.162500000000000089e+00

-1.125000000000000000e+00

-1.120000000000000107e+00

-1.107499999999999929e+00

-1.082500000000000018e+00

-1.062500000000000000e+00

-1.032499999999999973e+00

-1.007500000000000062e+00

-9.699999999999999734e-01

-9.324999999999999956e-01

-8.699999999999999956e-01

-8.199999999999999512e-01

-7.624999999999999556e-01

-6.999999999999999556e-01

-6.199999999999999956e-01

-5.450000000000000400e-01

-4.625000000000000222e-01

-3.825000000000000067e-01

-3.074999999999999956e-01

-2.374999999999999889e-01

-1.625000000000000056e-01

-8.749999999999999445e-02

1.250000000000000069e-02

7.000000000000000666e-02

1.325000000000000067e-01

1.875000000000000000e-01

2.250000000000000056e-01

2.700000000000000178e-01

2.999999999999999889e-01

3.325000000000000178e-01

3.574999999999999845e-01

3.825000000000000067e-01

3.950000000000000178e-01

4.000000000000000222e-01

4.074999999999999734e-01

4.199999999999999845e-01

4.199999999999999845e-01

4.124999999999999778e-01

4.074999999999999734e-01

3.950000000000000178e-01

3.875000000000000111e-01

3.825000000000000067e-01

3.750000000000000000e-01

3.624999999999999889e-01

3.574999999999999845e-01

3.449999999999999734e-01

3.449999999999999734e-01

3.375000000000000222e-01

3.375000000000000222e-01

3.325000000000000178e-01

3.250000000000000111e-01

3.200000000000000067e-01

3.074999999999999956e-01

2.949999999999999845e-01

2.874999999999999778e-01

2.750000000000000222e-01

2.625000000000000111e-01

2.500000000000000000e-01

2.449999999999999956e-01

2.374999999999999889e-01

2.325000000000000122e-01

2.250000000000000056e-01

2.124999999999999944e-01

2.000000000000000111e-01

1.875000000000000000e-01

1.824999999999999956e-01

1.824999999999999956e-01

1.950000000000000067e-01

2.000000000000000111e-01

2.124999999999999944e-01

2.449999999999999956e-01

2.625000000000000111e-01

2.750000000000000222e-01

2.824999999999999734e-01

2.874999999999999778e-01

2.874999999999999778e-01

3.074999999999999956e-01

3.499999999999999778e-01

4.000000000000000222e-01

4.625000000000000222e-01

5.000000000000000000e-01

5.374999999999999778e-01

5.500000000000000444e-01

5.625000000000000000e-01

5.625000000000000000e-01

5.625000000000000000e-01

5.500000000000000444e-01

5.324999999999999734e-01

5.000000000000000000e-01

4.625000000000000222e-01

4.124999999999999778e-01

3.750000000000000000e-01

3.449999999999999734e-01

3.074999999999999956e-01

2.824999999999999734e-01

2.625000000000000111e-01

2.449999999999999956e-01

2.374999999999999889e-01

2.374999999999999889e-01

2.374999999999999889e-01

2.374999999999999889e-01

2.200000000000000011e-01

2.200000000000000011e-01

2.124999999999999944e-01

2.074999999999999900e-01

2.000000000000000111e-01

2.000000000000000111e-01

1.875000000000000000e-01

1.875000000000000000e-01

1.824999999999999956e-01

1.875000000000000000e-01

1.950000000000000067e-01

2.250000000000000056e-01

2.824999999999999734e-01

3.750000000000000000e-01

4.949999999999999956e-01

6.199999999999999956e-01

7.700000000000000178e-01

9.449999999999999512e-01

1.132500000000000062e+00

1.337499999999999911e+00

1.537500000000000089e+00

1.707500000000000018e+00

1.850000000000000089e+00

1.962499999999999911e+00

2.057500000000000107e+00

2.125000000000000000e+00

2.187500000000000000e+00

2.232499999999999929e+00

2.294999999999999929e+00

2.362499999999999822e+00

2.412500000000000089e+00

2.419999999999999929e+00

2.375000000000000000e+00

2.274999999999999911e+00

2.162500000000000089e+00

2.024999999999999911e+00

1.875000000000000000e+00

1.699999999999999956e+00

1.532499999999999973e+00

1.344999999999999973e+00

1.175000000000000044e+00

1.007500000000000062e+00

8.199999999999999512e-01

6.075000000000000400e-01

3.875000000000000111e-01

1.499999999999999944e-01

-1.074999999999999983e-01

-3.125000000000000000e-01

-4.824999999999999845e-01

-5.825000000000000178e-01

-6.374999999999999556e-01

-6.500000000000000222e-01

-6.574999999999999734e-01

-6.624999999999999778e-01

-7.075000000000000178e-01

-7.574999999999999512e-01

-8.375000000000000222e-01

-9.000000000000000222e-01

-9.575000000000000178e-01

-9.749999999999999778e-01

-9.949999999999999956e-01

-1.000000000000000000e+00

-1.007500000000000062e+00

-1.024999999999999911e+00

-1.037500000000000089e+00

-1.044999999999999929e+00

-1.050000000000000044e+00

-1.062500000000000000e+00

-1.062500000000000000e+00

-1.074999999999999956e+00

-1.082500000000000018e+00

-1.100000000000000089e+00

-1.107499999999999929e+00

-1.125000000000000000e+00

-1.125000000000000000e+00

-1.132500000000000062e+00

-1.132500000000000062e+00

-1.132500000000000062e+00

-1.125000000000000000e+00

-1.125000000000000000e+00

-1.107499999999999929e+00

-1.100000000000000089e+00

-1.082500000000000018e+00

-1.057500000000000107e+00

-1.024999999999999911e+00

-9.875000000000000444e-01

-9.449999999999999512e-01

-9.000000000000000222e-01

-8.499999999999999778e-01

-7.874999999999999778e-01

-7.249999999999999778e-01

-6.574999999999999734e-01

-5.875000000000000222e-01

-5.074999999999999512e-01

-4.249999999999999889e-01

-3.499999999999999778e-01

-2.700000000000000178e-01

-1.950000000000000067e-01

-1.125000000000000028e-01

-4.499999999999999833e-02

3.749999999999999861e-02

1.000000000000000056e-01

1.575000000000000011e-01

2.124999999999999944e-01

2.500000000000000000e-01

2.999999999999999889e-01

3.325000000000000178e-01

3.699999999999999956e-01

3.875000000000000111e-01

4.124999999999999778e-01

4.249999999999999889e-01

4.375000000000000000e-01

4.450000000000000067e-01

4.375000000000000000e-01

4.324999999999999956e-01

4.324999999999999956e-01

4.324999999999999956e-01

4.249999999999999889e-01

4.124999999999999778e-01

4.000000000000000222e-01

3.950000000000000178e-01

3.825000000000000067e-01

3.750000000000000000e-01

3.624999999999999889e-01

3.499999999999999778e-01

3.375000000000000222e-01

3.325000000000000178e-01

3.250000000000000111e-01

3.200000000000000067e-01

3.074999999999999956e-01

2.999999999999999889e-01

2.874999999999999778e-01

2.874999999999999778e-01

2.700000000000000178e-01

2.625000000000000111e-01

2.449999999999999956e-01

2.374999999999999889e-01

2.325000000000000122e-01

2.250000000000000056e-01

2.124999999999999944e-01

2.074999999999999900e-01

2.000000000000000111e-01

1.875000000000000000e-01

1.875000000000000000e-01

1.875000000000000000e-01

1.824999999999999956e-01

1.749999999999999889e-01

1.824999999999999956e-01

1.950000000000000067e-01

2.124999999999999944e-01

2.374999999999999889e-01

2.575000000000000067e-01

2.700000000000000178e-01

2.750000000000000222e-01

2.750000000000000222e-01

2.824999999999999734e-01

2.949999999999999845e-01

3.375000000000000222e-01

3.875000000000000111e-01

4.500000000000000111e-01

5.074999999999999512e-01

5.374999999999999778e-01

5.574999999999999956e-01

5.699999999999999512e-01

5.749999999999999556e-01

5.749999999999999556e-01

5.625000000000000000e-01

5.450000000000000400e-01

5.200000000000000178e-01

4.874999999999999889e-01

4.375000000000000000e-01

3.950000000000000178e-01

3.574999999999999845e-01

3.250000000000000111e-01

2.999999999999999889e-01

2.750000000000000222e-01

2.575000000000000067e-01

2.449999999999999956e-01

2.325000000000000122e-01

2.325000000000000122e-01

2.250000000000000056e-01

2.200000000000000011e-01

2.200000000000000011e-01

2.074999999999999900e-01

2.000000000000000111e-01

1.950000000000000067e-01

1.875000000000000000e-01

1.875000000000000000e-01

2.000000000000000111e-01

2.000000000000000111e-01

2.074999999999999900e-01

2.124999999999999944e-01

2.374999999999999889e-01

2.949999999999999845e-01

3.750000000000000000e-01

4.949999999999999956e-01

6.125000000000000444e-01

7.624999999999999556e-01

9.324999999999999956e-01

1.125000000000000000e+00

1.320000000000000062e+00

1.520000000000000018e+00

1.682500000000000107e+00

1.824999999999999956e+00

1.949999999999999956e+00

2.044999999999999929e+00

2.125000000000000000e+00

2.182500000000000107e+00

2.225000000000000089e+00

2.287500000000000089e+00

2.357499999999999929e+00

2.399999999999999911e+00

2.419999999999999929e+00

2.382499999999999840e+00

2.294999999999999929e+00

2.187500000000000000e+00

2.049999999999999822e+00

1.899999999999999911e+00

1.725000000000000089e+00

1.544999999999999929e+00

1.382500000000000062e+00

1.212499999999999911e+00

1.057500000000000107e+00

8.824999999999999512e-01

6.824999999999999956e-01

4.375000000000000000e-01

2.000000000000000111e-01

-6.250000000000000000e-02

-2.824999999999999734e-01

-4.575000000000000178e-01

-5.825000000000000178e-01

-6.500000000000000222e-01

-6.624999999999999778e-01

-6.750000000000000444e-01

-6.824999999999999956e-01

-7.125000000000000222e-01

-7.624999999999999556e-01

-8.375000000000000222e-01

-9.000000000000000222e-01

-9.575000000000000178e-01

-9.949999999999999956e-01

-1.020000000000000018e+00

-1.032499999999999973e+00

-1.032499999999999973e+00

-1.032499999999999973e+00

-1.037500000000000089e+00

-1.050000000000000044e+00

-1.050000000000000044e+00

-1.057500000000000107e+00

-1.070000000000000062e+00

-1.087499999999999911e+00

-1.094999999999999973e+00

-1.100000000000000089e+00

-1.100000000000000089e+00

-1.112500000000000044e+00

-1.112500000000000044e+00

-1.125000000000000000e+00

-1.132500000000000062e+00

-1.137499999999999956e+00

-1.125000000000000000e+00

-1.120000000000000107e+00

-1.112500000000000044e+00

-1.094999999999999973e+00

-1.074999999999999956e+00

-1.057500000000000107e+00

-1.024999999999999911e+00

-1.000000000000000000e+00

-9.625000000000000222e-01

-9.250000000000000444e-01

-8.625000000000000444e-01

-8.000000000000000444e-01

-7.375000000000000444e-01

-6.750000000000000444e-01

-5.999999999999999778e-01

-5.250000000000000222e-01

-4.500000000000000111e-01

-3.750000000000000000e-01

-2.949999999999999845e-01

-2.124999999999999944e-01

-1.449999999999999900e-01

-7.000000000000000666e-02

2.000000000000000042e-02

8.250000000000000389e-02

1.449999999999999900e-01

2.000000000000000111e-01

2.500000000000000000e-01

2.874999999999999778e-01

3.200000000000000067e-01

3.449999999999999734e-01

3.624999999999999889e-01

3.825000000000000067e-01

4.000000000000000222e-01

4.074999999999999734e-01

4.199999999999999845e-01

4.324999999999999956e-01

4.375000000000000000e-01

4.324999999999999956e-01

4.249999999999999889e-01

4.199999999999999845e-01

4.124999999999999778e-01

4.000000000000000222e-01

3.875000000000000111e-01

3.750000000000000000e-01

3.699999999999999956e-01

3.499999999999999778e-01

3.499999999999999778e-01

3.449999999999999734e-01

3.375000000000000222e-01

3.250000000000000111e-01

3.200000000000000067e-01

3.074999999999999956e-01

2.999999999999999889e-01

2.949999999999999845e-01

2.824999999999999734e-01

2.700000000000000178e-01

2.625000000000000111e-01

2.575000000000000067e-01

2.449999999999999956e-01

2.325000000000000122e-01

2.250000000000000056e-01

2.124999999999999944e-01

2.000000000000000111e-01

1.950000000000000067e-01

1.875000000000000000e-01

1.824999999999999956e-01

1.875000000000000000e-01

1.950000000000000067e-01

2.000000000000000111e-01

2.200000000000000011e-01

2.374999999999999889e-01

2.449999999999999956e-01

2.575000000000000067e-01

2.625000000000000111e-01

2.500000000000000000e-01

2.700000000000000178e-01

2.874999999999999778e-01

3.375000000000000222e-01

3.950000000000000178e-01

4.575000000000000178e-01

4.949999999999999956e-01

5.250000000000000222e-01

5.374999999999999778e-01

5.450000000000000400e-01

5.574999999999999956e-01

5.500000000000000444e-01

5.250000000000000222e-01

5.124999999999999556e-01

4.824999999999999845e-01

4.375000000000000000e-01

3.950000000000000178e-01

3.499999999999999778e-01

3.200000000000000067e-01

2.874999999999999778e-01

2.700000000000000178e-01

2.500000000000000000e-01

2.449999999999999956e-01

2.374999999999999889e-01

2.250000000000000056e-01

2.124999999999999944e-01

2.074999999999999900e-01

2.000000000000000111e-01

1.950000000000000067e-01

1.950000000000000067e-01

1.875000000000000000e-01

1.749999999999999889e-01

1.700000000000000122e-01

1.700000000000000122e-01

1.625000000000000056e-01

1.575000000000000011e-01

1.625000000000000056e-01

1.824999999999999956e-01

2.200000000000000011e-01

2.824999999999999734e-01

3.750000000000000000e-01

5.000000000000000000e-01

6.324999999999999512e-01

7.750000000000000222e-01

9.499999999999999556e-01

1.149999999999999911e+00

1.357499999999999929e+00

1.557500000000000107e+00

1.707500000000000018e+00

1.837499999999999911e+00

1.937500000000000000e+00

2.024999999999999911e+00

2.087499999999999911e+00

2.145000000000000018e+00

2.187500000000000000e+00

2.250000000000000000e+00

2.319999999999999840e+00

2.362499999999999822e+00

2.362499999999999822e+00

2.307500000000000107e+00

2.207500000000000018e+00

2.087499999999999911e+00

1.949999999999999956e+00

1.794999999999999929e+00

1.625000000000000000e+00

1.457500000000000018e+00

1.287500000000000089e+00

1.125000000000000000e+00

9.625000000000000222e-01

7.824999999999999734e-01

5.825000000000000178e-01

3.499999999999999778e-01

1.125000000000000028e-01

-1.325000000000000067e-01

-3.325000000000000178e-01

-4.949999999999999956e-01

-5.949999999999999734e-01

-6.450000000000000178e-01

-6.574999999999999734e-01

-6.750000000000000444e-01

-6.875000000000000000e-01

-7.249999999999999778e-01

-7.824999999999999734e-01

