2.575000000000000067e-01

2.399999999999999911e-01

2.049999999999999878e-01

1.524999999999999967e-01

6.500000000000000222e-02

-8.000000000000000167e-02

-2.275000000000000078e-01

-3.499999999999999778e-01

-4.199999999999999845e-01

-4.724999999999999756e-01

-5.350000000000000311e-01

-5.875000000000000222e-01

-6.225000000000000533e-01

-6.600000000000000311e-01

-7.399999999999999911e-01

-8.699999999999999956e-01

-1.060000000000000053e+00

-1.272499999999999964e+00

-1.475000000000000089e+00

-1.637499999999999956e+00

-1.762499999999999956e+00

-1.837499999999999911e+00

-1.842500000000000027e+00

-1.772499999999999964e+00

-1.632500000000000062e+00

-1.447500000000000009e+00

-1.229999999999999982e+00

-1.027500000000000080e+00

-8.399999999999999689e-01

-6.750000000000000444e-01

-5.424999999999999822e-01

-4.425000000000000044e-01

-3.900000000000000133e-01

-3.850000000000000089e-01

-3.975000000000000200e-01

-4.025000000000000244e-01

-3.850000000000000089e-01

-3.275000000000000133e-01

-2.550000000000000044e-01

-1.575000000000000011e-01

-4.750000000000000056e-02

7.499999999999999722e-02

1.675000000000000100e-01

2.550000000000000044e-01

3.275000000000000133e-01

4.149999999999999800e-01

5.024999999999999467e-01

6.175000000000000488e-01

7.449999999999999956e-01

8.750000000000000000e-01

1.020000000000000018e+00

1.159999999999999920e+00

1.294999999999999929e+00

1.417499999999999982e+00

1.504999999999999893e+00

1.567499999999999893e+00

1.602500000000000036e+00

1.622500000000000053e+00

1.639999999999999902e+00

1.667499999999999982e+00

1.689999999999999947e+00

1.689999999999999947e+00

1.685000000000000053e+00

1.679999999999999938e+00

1.672500000000000098e+00

1.672500000000000098e+00

1.675000000000000044e+00

1.672500000000000098e+00

1.672500000000000098e+00

1.672500000000000098e+00

1.679999999999999938e+00

1.685000000000000053e+00

1.679999999999999938e+00

1.679999999999999938e+00

1.667499999999999982e+00

1.645000000000000018e+00

1.622500000000000053e+00

1.614999999999999991e+00

1.610000000000000098e+00

1.610000000000000098e+00

1.602500000000000036e+00

1.584999999999999964e+00

1.552499999999999991e+00

1.522499999999999964e+00

1.504999999999999893e+00

1.492499999999999938e+00

1.479999999999999982e+00

1.469999999999999973e+00

1.457500000000000018e+00

1.429999999999999938e+00

1.399999999999999911e+00

1.377499999999999947e+00

1.347499999999999920e+00

1.312500000000000000e+00

1.202499999999999902e+00

1.077499999999999902e+00

1.014999999999999902e+00

1.024999999999999911e+00

1.094999999999999973e+00

1.155000000000000027e+00

1.182500000000000107e+00

1.155000000000000027e+00

1.125000000000000000e+00

1.112500000000000044e+00

1.084999999999999964e+00

1.062500000000000000e+00

1.042499999999999982e+00

1.024999999999999911e+00

9.975000000000000533e-01

9.575000000000000178e-01

9.200000000000000400e-01

9.024999999999999689e-01

9.050000000000000266e-01

9.024999999999999689e-01

8.850000000000000089e-01

8.625000000000000444e-01

8.349999999999999645e-01

8.050000000000000488e-01

7.700000000000000178e-01

7.449999999999999956e-01

7.349999999999999867e-01

7.225000000000000311e-01

7.049999999999999600e-01

6.824999999999999956e-01

6.574999999999999734e-01

6.225000000000000533e-01

5.899999999999999689e-01

5.474999999999999867e-01

5.124999999999999556e-01

4.774999999999999800e-01

4.500000000000000111e-01

4.324999999999999956e-01

4.199999999999999845e-01

4.025000000000000244e-01

3.800000000000000044e-01

3.674999999999999933e-01

3.449999999999999734e-01

3.325000000000000178e-01

3.150000000000000022e-01

3.024999999999999911e-01

2.924999999999999822e-01

2.974999999999999867e-01

2.974999999999999867e-01

2.924999999999999822e-01

2.849999999999999756e-01

2.750000000000000222e-01

2.750000000000000222e-01

2.899999999999999800e-01

3.024999999999999911e-01

3.150000000000000022e-01

3.325000000000000178e-01

3.449999999999999734e-01

3.499999999999999778e-01

3.425000000000000266e-01

3.325000000000000178e-01

3.150000000000000022e-01

3.024999999999999911e-01

2.800000000000000266e-01

2.725000000000000200e-01

2.675000000000000155e-01

2.750000000000000222e-01

2.800000000000000266e-01

2.750000000000000222e-01

2.675000000000000155e-01

2.449999999999999956e-01

2.225000000000000033e-01

2.275000000000000078e-01

2.399999999999999911e-01

2.550000000000000044e-01

2.625000000000000111e-01

2.625000000000000111e-01

2.550000000000000044e-01

2.374999999999999889e-01

2.275000000000000078e-01

2.149999999999999967e-01

2.049999999999999878e-01

2.025000000000000133e-01

2.025000000000000133e-01

1.975000000000000089e-01

1.925000000000000044e-01

1.925000000000000044e-01

1.925000000000000044e-01

1.975000000000000089e-01

2.049999999999999878e-01

2.049999999999999878e-01

1.975000000000000089e-01

1.799999999999999933e-01

1.675000000000000100e-01

1.675000000000000100e-01

1.749999999999999889e-01

1.799999999999999933e-01

1.875000000000000000e-01

1.849999999999999978e-01

1.875000000000000000e-01

1.849999999999999978e-01

1.849999999999999978e-01

1.700000000000000122e-01

1.575000000000000011e-01

1.400000000000000133e-01

1.350000000000000089e-01

1.275000000000000022e-01

4.000000000000000083e-02

2.249999999999999917e-02

7.499999999999999722e-02

1.449999999999999900e-01

2.200000000000000011e-01

2.675000000000000155e-01

2.625000000000000111e-01

2.500000000000000000e-01

2.550000000000000044e-01

2.675000000000000155e-01

2.449999999999999956e-01

2.025000000000000133e-01

1.275000000000000022e-01

2.750000000000000014e-02

-1.174999999999999933e-01

-2.500000000000000000e-01

-3.499999999999999778e-01

-4.124999999999999778e-01

-4.600000000000000200e-01

-5.250000000000000222e-01

-5.999999999999999778e-01

-6.700000000000000400e-01

-7.299999999999999822e-01

-8.050000000000000488e-01

-9.200000000000000400e-01

-1.077499999999999902e+00

-1.270000000000000018e+00

-1.469999999999999973e+00

-1.649999999999999911e+00

-1.814999999999999947e+00

-1.937500000000000000e+00

-1.982499999999999929e+00

-1.935000000000000053e+00

-1.797500000000000098e+00

-1.597499999999999920e+00

-1.370000000000000107e+00

-1.147499999999999964e+00

-9.549999999999999600e-01

-7.700000000000000178e-01

-6.125000000000000444e-01

-4.899999999999999911e-01

-4.425000000000000044e-01

-4.600000000000000200e-01

-5.250000000000000222e-01

-5.775000000000000133e-01

-5.775000000000000133e-01

-5.000000000000000000e-01

-3.800000000000000044e-01

-2.449999999999999956e-01

-1.100000000000000006e-01

2.249999999999999917e-02

1.100000000000000006e-01

1.700000000000000122e-01

2.275000000000000078e-01

2.899999999999999800e-01

3.800000000000000044e-01

5.000000000000000000e-01

6.300000000000000044e-01

7.700000000000000178e-01

8.974999999999999645e-01

1.042499999999999982e+00

1.165000000000000036e+00

1.312500000000000000e+00

1.447500000000000009e+00

1.544999999999999929e+00

1.587499999999999911e+00

1.592500000000000027e+00

1.592500000000000027e+00

1.584999999999999964e+00

1.587499999999999911e+00

1.597499999999999920e+00

1.587499999999999911e+00

1.550000000000000044e+00

1.534999999999999920e+00

1.550000000000000044e+00

1.557500000000000107e+00

1.550000000000000044e+00

1.532499999999999973e+00

1.522499999999999964e+00

1.522499999999999964e+00

1.527500000000000080e+00

1.534999999999999920e+00

1.544999999999999929e+00

1.552499999999999991e+00

1.557500000000000107e+00

1.552499999999999991e+00

1.534999999999999920e+00

1.500000000000000000e+00

1.457500000000000018e+00

1.412500000000000089e+00

1.392500000000000071e+00

1.364999999999999991e+00

1.377499999999999947e+00

1.392500000000000071e+00

1.392500000000000071e+00

1.377499999999999947e+00

1.352500000000000036e+00

1.317499999999999893e+00

1.290000000000000036e+00

1.254999999999999893e+00

1.219999999999999973e+00

1.167499999999999982e+00

1.125000000000000000e+00

1.102500000000000036e+00

1.094999999999999973e+00

1.094999999999999973e+00

1.077499999999999902e+00

1.042499999999999982e+00

1.010000000000000009e+00

9.925000000000000488e-01

9.725000000000000311e-01

9.449999999999999512e-01

9.024999999999999689e-01

8.625000000000000444e-01

8.275000000000000133e-01

8.050000000000000488e-01

7.874999999999999778e-01

7.700000000000000178e-01

7.524999999999999467e-01

7.449999999999999956e-01

7.225000000000000311e-01

6.875000000000000000e-01

6.400000000000000133e-01

5.999999999999999778e-01

5.600000000000000533e-01

5.350000000000000311e-01

5.074999999999999512e-01

4.849999999999999867e-01

4.650000000000000244e-01

4.500000000000000111e-01

4.425000000000000044e-01

4.149999999999999800e-01

3.850000000000000089e-01

3.599999999999999867e-01

3.325000000000000178e-01

3.200000000000000067e-01

3.250000000000000111e-01

3.200000000000000067e-01

3.150000000000000022e-01

2.899999999999999800e-01

2.500000000000000000e-01

2.099999999999999922e-01

1.700000000000000122e-01

1.499999999999999944e-01

1.449999999999999900e-01

1.449999999999999900e-01

1.625000000000000056e-01

1.799999999999999933e-01

1.875000000000000000e-01

1.799999999999999933e-01

1.675000000000000100e-01

1.575000000000000011e-01

1.350000000000000089e-01

1.174999999999999933e-01

1.049999999999999961e-01

1.100000000000000006e-01

1.224999999999999978e-01

1.174999999999999933e-01

1.100000000000000006e-01

1.049999999999999961e-01

1.049999999999999961e-01

1.150000000000000050e-01

1.174999999999999933e-01

1.049999999999999961e-01

9.750000000000000333e-02

9.750000000000000333e-02

9.750000000000000333e-02

9.750000000000000333e-02

8.250000000000000389e-02

8.749999999999999445e-02

9.750000000000000333e-02

1.049999999999999961e-01

1.049999999999999961e-01

1.150000000000000050e-01

1.224999999999999978e-01

1.325000000000000067e-01

1.400000000000000133e-01

1.449999999999999900e-01

1.400000000000000133e-01

1.350000000000000089e-01

1.325000000000000067e-01

1.174999999999999933e-01

1.174999999999999933e-01

1.275000000000000022e-01

1.400000000000000133e-01

1.524999999999999967e-01

1.700000000000000122e-01

1.700000000000000122e-01

1.625000000000000056e-01

1.524999999999999967e-01

1.625000000000000056e-01

1.749999999999999889e-01

1.925000000000000044e-01

1.925000000000000044e-01

1.975000000000000089e-01

2.025000000000000133e-01

2.200000000000000011e-01

2.399999999999999911e-01

2.550000000000000044e-01

2.500000000000000000e-01

2.374999999999999889e-01

2.275000000000000078e-01

2.225000000000000033e-01

2.225000000000000033e-01

2.275000000000000078e-01

2.374999999999999889e-01

2.500000000000000000e-01

2.550000000000000044e-01

2.625000000000000111e-01

2.675000000000000155e-01

1.749999999999999889e-01

1.000000000000000056e-01

1.224999999999999978e-01

1.625000000000000056e-01

2.099999999999999922e-01

2.575000000000000067e-01

2.625000000000000111e-01

2.500000000000000000e-01

2.449999999999999956e-01

2.625000000000000111e-01

2.550000000000000044e-01

2.200000000000000011e-01

1.675000000000000100e-01

8.250000000000000389e-02

-4.750000000000000056e-02

-1.925000000000000044e-01

-3.150000000000000022e-01

-4.025000000000000244e-01

-4.650000000000000244e-01

-5.200000000000000178e-01

-5.775000000000000133e-01

-6.225000000000000533e-01

-6.750000000000000444e-01

-7.524999999999999467e-01

-8.750000000000000000e-01

-1.027500000000000080e+00

-1.207500000000000018e+00

-1.405000000000000027e+00

-1.557500000000000107e+00

-1.679999999999999938e+00

-1.750000000000000000e+00

-1.767500000000000071e+00

-1.745000000000000107e+00

-1.657499999999999973e+00

-1.510000000000000009e+00

-1.304999999999999938e+00

-1.072500000000000009e+00

-8.675000000000000488e-01

-6.875000000000000000e-01

-5.374999999999999778e-01

-4.375000000000000000e-01

-3.850000000000000089e-01

-3.800000000000000044e-01

-4.025000000000000244e-01

-4.299999999999999933e-01

-4.324999999999999956e-01

-4.025000000000000244e-01

-3.325000000000000178e-01

-2.399999999999999911e-01

-1.150000000000000050e-01

2.750000000000000014e-02

1.350000000000000089e-01

2.275000000000000078e-01

3.074999999999999956e-01

3.800000000000000044e-01

4.824999999999999845e-01

5.899999999999999689e-01

7.125000000000000222e-01

8.399999999999999689e-01

9.749999999999999778e-01

1.112500000000000044e+00

1.254999999999999893e+00

1.392500000000000071e+00

1.500000000000000000e+00

1.580000000000000071e+00

1.639999999999999902e+00

1.685000000000000053e+00

1.715000000000000080e+00

1.725000000000000089e+00

1.719999999999999973e+00

1.725000000000000089e+00

1.732499999999999929e+00

1.742499999999999938e+00

1.754999999999999893e+00

1.754999999999999893e+00

1.745000000000000107e+00

1.727500000000000036e+00

1.715000000000000080e+00

1.709999999999999964e+00

1.709999999999999964e+00

1.725000000000000089e+00

1.737500000000000044e+00

1.737500000000000044e+00

1.737500000000000044e+00

1.727500000000000036e+00

1.707500000000000018e+00

1.692499999999999893e+00

1.667499999999999982e+00

1.639999999999999902e+00

1.620000000000000107e+00

1.602500000000000036e+00

1.592500000000000027e+00

1.580000000000000071e+00

1.557500000000000107e+00

1.540000000000000036e+00

1.522499999999999964e+00

1.497500000000000053e+00

1.479999999999999982e+00

1.462499999999999911e+00

1.435000000000000053e+00

1.412500000000000089e+00

1.392500000000000071e+00

1.364999999999999991e+00

1.330000000000000071e+00

1.294999999999999929e+00

1.277500000000000080e+00

1.247500000000000053e+00

1.212499999999999911e+00

1.165000000000000036e+00

1.120000000000000107e+00

1.097499999999999920e+00

1.084999999999999964e+00

1.077499999999999902e+00

1.044999999999999929e+00

1.014999999999999902e+00

9.975000000000000533e-01

9.799999999999999822e-01

9.675000000000000266e-01

9.399999999999999467e-01

9.150000000000000355e-01

8.850000000000000089e-01

8.525000000000000355e-01

8.225000000000000089e-01

8.000000000000000444e-01

7.824999999999999734e-01

7.750000000000000222e-01

7.750000000000000222e-01

7.624999999999999556e-01

7.449999999999999956e-01

7.275000000000000355e-01

6.999999999999999556e-01

6.700000000000000400e-01

6.350000000000000089e-01

6.075000000000000400e-01

5.899999999999999689e-01

5.825000000000000178e-01

5.699999999999999512e-01

5.424999999999999822e-01

5.174999999999999600e-01

4.949999999999999956e-01

4.774999999999999800e-01

4.600000000000000200e-01

4.475000000000000089e-01

4.425000000000000044e-01

4.475000000000000089e-01

4.650000000000000244e-01

4.849999999999999867e-01

5.174999999999999600e-01

5.350000000000000311e-01

5.524999999999999911e-01

5.550000000000000488e-01

5.424999999999999822e-01

5.174999999999999600e-01

4.774999999999999800e-01

4.550000000000000155e-01

4.425000000000000044e-01

4.425000000000000044e-01

4.299999999999999933e-01

3.975000000000000200e-01

3.674999999999999933e-01

3.449999999999999734e-01

3.250000000000000111e-01

2.974999999999999867e-01

2.625000000000000111e-01

2.399999999999999911e-01

2.399999999999999911e-01

2.625000000000000111e-01

2.899999999999999800e-01

3.099999999999999978e-01

3.150000000000000022e-01

3.250000000000000111e-01

3.150000000000000022e-01

2.924999999999999822e-01

2.725000000000000200e-01

2.449999999999999956e-01

2.275000000000000078e-01

2.374999999999999889e-01

2.449999999999999956e-01

2.449999999999999956e-01

2.449999999999999956e-01

2.449999999999999956e-01

2.500000000000000000e-01

2.449999999999999956e-01

2.550000000000000044e-01

2.550000000000000044e-01

2.449999999999999956e-01

2.449999999999999956e-01

2.325000000000000122e-01

2.099999999999999922e-01

2.025000000000000133e-01

1.925000000000000044e-01

1.875000000000000000e-01

1.975000000000000089e-01

2.149999999999999967e-01

2.399999999999999911e-01

2.449999999999999956e-01

2.225000000000000033e-01

2.049999999999999878e-01

2.025000000000000133e-01

2.049999999999999878e-01

2.275000000000000078e-01

2.449999999999999956e-01

2.225000000000000033e-01

1.700000000000000122e-01

1.224999999999999978e-01

1.174999999999999933e-01

1.224999999999999978e-01

1.325000000000000067e-01

1.350000000000000089e-01

1.400000000000000133e-01

7.000000000000000666e-02

0.000000000000000000e+00

4.499999999999999833e-02

1.150000000000000050e-01

1.849999999999999978e-01

2.500000000000000000e-01

2.725000000000000200e-01

2.550000000000000044e-01

2.449999999999999956e-01

2.625000000000000111e-01

2.625000000000000111e-01

2.225000000000000033e-01

1.749999999999999889e-01

1.224999999999999978e-01

2.999999999999999889e-02

-9.750000000000000333e-02

-2.200000000000000011e-01

-3.250000000000000111e-01

-4.149999999999999800e-01

-5.024999999999999467e-01

-5.825000000000000178e-01

-6.474999999999999645e-01

-6.750000000000000444e-01

-7.225000000000000311e-01

-8.225000000000000089e-01

-9.849999999999999867e-01

-1.177499999999999991e+00

-1.340000000000000080e+00

-1.462499999999999911e+00

-1.570000000000000062e+00

-1.685000000000000053e+00

-1.772499999999999964e+00

-1.790000000000000036e+00

-1.719999999999999973e+00

-1.550000000000000044e+00

-1.330000000000000071e+00

-1.102500000000000036e+00

-8.699999999999999956e-01

-6.574999999999999734e-01

-4.824999999999999845e-01

-3.950000000000000178e-01

-4.074999999999999734e-01

-4.550000000000000155e-01

-5.024999999999999467e-01

-5.300000000000000266e-01

-5.350000000000000311e-01

-4.949999999999999956e-01

-3.900000000000000133e-01

-2.399999999999999911e-01

-7.000000000000000666e-02

7.499999999999999722e-02

1.524999999999999967e-01

2.149999999999999967e-01

2.849999999999999756e-01

3.724999999999999978e-01

4.675000000000000266e-01

5.600000000000000533e-01

6.700000000000000400e-01

7.874999999999999778e-01

9.050000000000000266e-01

1.014999999999999902e+00

1.114999999999999991e+00

1.237500000000000044e+00

1.357499999999999929e+00

1.427499999999999991e+00

1.462499999999999911e+00

1.469999999999999973e+00

1.479999999999999982e+00

1.487500000000000044e+00

1.487500000000000044e+00

1.482499999999999929e+00

1.475000000000000089e+00

1.469999999999999973e+00

1.457500000000000018e+00

1.457500000000000018e+00

1.469999999999999973e+00

1.479999999999999982e+00

1.487500000000000044e+00

1.482499999999999929e+00

1.479999999999999982e+00

1.479999999999999982e+00

1.475000000000000089e+00

1.462499999999999911e+00

1.452499999999999902e+00

1.447500000000000009e+00

1.439999999999999947e+00

1.409999999999999920e+00

1.360000000000000098e+00

1.312500000000000000e+00

1.294999999999999929e+00

1.290000000000000036e+00

1.312500000000000000e+00

1.300000000000000044e+00

1.264999999999999902e+00

1.217500000000000027e+00

1.132500000000000062e+00

1.044999999999999929e+00

9.625000000000000222e-01

9.274999999999999911e-01

9.499999999999999556e-01

9.725000000000000311e-01

9.575000000000000178e-01

9.200000000000000400e-01

8.625000000000000444e-01

8.149999999999999467e-01

7.750000000000000222e-01

7.475000000000000533e-01

7.349999999999999867e-01

7.399999999999999911e-01

7.299999999999999822e-01

6.824999999999999956e-01

6.350000000000000089e-01

6.300000000000000044e-01

6.700000000000000400e-01

7.449999999999999956e-01

8.399999999999999689e-01

9.399999999999999467e-01

1.032499999999999973e+00

1.090000000000000080e+00

1.102500000000000036e+00

1.067499999999999893e+00

1.014999999999999902e+00

9.725000000000000311e-01

9.274999999999999911e-01

8.924999999999999600e-01

8.525000000000000355e-01

8.325000000000000178e-01

7.974999999999999867e-01

7.524999999999999467e-01

6.949999999999999512e-01

6.474999999999999645e-01

5.999999999999999778e-01

5.699999999999999512e-01

5.524999999999999911e-01

5.424999999999999822e-01

5.300000000000000266e-01

5.200000000000000178e-01

5.000000000000000000e-01

4.824999999999999845e-01

4.675000000000000266e-01

4.500000000000000111e-01

4.500000000000000111e-01

4.475000000000000089e-01

4.324999999999999956e-01

4.149999999999999800e-01

3.975000000000000200e-01

3.800000000000000044e-01

3.549999999999999822e-01

3.275000000000000133e-01

3.200000000000000067e-01

3.099999999999999978e-01

3.099999999999999978e-01

3.200000000000000067e-01

3.325000000000000178e-01

3.275000000000000133e-01

3.200000000000000067e-01

3.250000000000000111e-01

3.375000000000000222e-01

3.449999999999999734e-01

3.549999999999999822e-01

3.624999999999999889e-01

3.674999999999999933e-01

3.775000000000000022e-01

3.850000000000000089e-01

3.950000000000000178e-01

3.950000000000000178e-01

4.025000000000000244e-01

4.025000000000000244e-01

4.074999999999999734e-01

4.124999999999999778e-01

4.199999999999999845e-01

4.324999999999999956e-01

4.425000000000000044e-01

4.375000000000000000e-01

4.375000000000000000e-01

4.475000000000000089e-01

4.550000000000000155e-01

4.600000000000000200e-01

4.425000000000000044e-01

4.074999999999999734e-01

3.900000000000000133e-01

3.900000000000000133e-01

4.025000000000000244e-01

4.149999999999999800e-01

4.249999999999999889e-01

4.324999999999999956e-01

4.500000000000000111e-01

4.849999999999999867e-01

5.200000000000000178e-01

5.374999999999999778e-01

5.524999999999999911e-01

5.600000000000000533e-01

5.550000000000000488e-01

5.474999999999999867e-01

5.374999999999999778e-01

5.374999999999999778e-01

5.350000000000000311e-01

5.300000000000000266e-01

5.174999999999999600e-01

5.024999999999999467e-01

4.849999999999999867e-01

4.675000000000000266e-01

4.550000000000000155e-01

4.500000000000000111e-01

4.500000000000000111e-01

4.600000000000000200e-01

4.675000000000000266e-01

4.675000000000000266e-01

4.650000000000000244e-01

4.500000000000000111e-01

3.975000000000000200e-01

2.575000000000000067e-01

1.925000000000000044e-01

1.799999999999999933e-01

1.975000000000000089e-01

2.374999999999999889e-01

2.550000000000000044e-01

2.500000000000000000e-01

2.449999999999999956e-01

2.500000000000000000e-01

2.575000000000000067e-01

2.374999999999999889e-01

1.849999999999999978e-01

1.224999999999999978e-01

2.999999999999999889e-02

-1.049999999999999961e-01

-2.275000000000000078e-01

-3.250000000000000111e-01

-3.950000000000000178e-01

-4.824999999999999845e-01

-5.699999999999999512e-01

-6.400000000000000133e-01

-6.824999999999999956e-01

-7.275000000000000355e-01

-8.100000000000000533e-01

-9.399999999999999467e-01

-1.120000000000000107e+00

-1.317499999999999893e+00

-1.500000000000000000e+00

-1.649999999999999911e+00

-1.762499999999999956e+00

-1.820000000000000062e+00

-1.802499999999999991e+00

-1.725000000000000089e+00

-1.587499999999999911e+00

-1.392500000000000071e+00

-1.182500000000000107e+00

-9.799999999999999822e-01

-7.924999999999999822e-01

-6.250000000000000000e-01

-5.000000000000000000e-01

-4.324999999999999956e-01

-4.149999999999999800e-01

-4.324999999999999956e-01

-4.675000000000000266e-01

-4.899999999999999911e-01

-4.724999999999999756e-01

-4.149999999999999800e-01

-3.250000000000000111e-01

-2.049999999999999878e-01

-7.499999999999999722e-02

6.250000000000000000e-02

1.675000000000000100e-01

2.500000000000000000e-01

3.275000000000000133e-01

4.149999999999999800e-01

5.200000000000000178e-01

6.524999999999999689e-01

7.750000000000000222e-01

9.024999999999999689e-01

1.032499999999999973e+00

1.172500000000000098e+00

1.330000000000000071e+00

1.475000000000000089e+00

1.584999999999999964e+00

1.639999999999999902e+00

1.667499999999999982e+00

1.689999999999999947e+00

1.702499999999999902e+00

1.709999999999999964e+00

1.737500000000000044e+00

1.754999999999999893e+00

1.777500000000000080e+00

1.784999999999999920e+00

1.780000000000000027e+00

1.762499999999999956e+00

1.742499999999999938e+00

1.732499999999999929e+00

1.719999999999999973e+00

1.689999999999999947e+00

1.649999999999999911e+00

1.614999999999999991e+00

1.597499999999999920e+00

1.592500000000000027e+00

1.597499999999999920e+00

1.592500000000000027e+00

1.567499999999999893e+00

1.544999999999999929e+00

1.522499999999999964e+00

1.514999999999999902e+00

1.487500000000000044e+00

1.462499999999999911e+00

1.429999999999999938e+00

1.405000000000000027e+00

1.382500000000000062e+00

1.352500000000000036e+00

1.324999999999999956e+00

1.317499999999999893e+00

1.312500000000000000e+00

1.304999999999999938e+00

1.270000000000000018e+00

1.219999999999999973e+00

1.182500000000000107e+00

1.147499999999999964e+00

1.114999999999999991e+00

1.094999999999999973e+00

1.080000000000000071e+00

1.072500000000000009e+00

1.044999999999999929e+00

1.007500000000000062e+00

9.549999999999999600e-01

9.024999999999999689e-01

8.800000000000000044e-01

8.699999999999999956e-01

8.575000000000000400e-01

8.175000000000000044e-01

7.624999999999999556e-01

7.049999999999999600e-01

6.650000000000000355e-01

6.424999999999999600e-01

6.474999999999999645e-01

6.350000000000000089e-01

5.999999999999999778e-01

5.600000000000000533e-01

5.250000000000000222e-01

5.000000000000000000e-01

4.724999999999999756e-01

4.650000000000000244e-01

4.500000000000000111e-01

4.475000000000000089e-01

4.375000000000000000e-01

4.199999999999999845e-01

3.950000000000000178e-01

3.499999999999999778e-01

2.924999999999999822e-01

2.550000000000000044e-01

2.200000000000000011e-01

2.025000000000000133e-01

1.925000000000000044e-01

1.925000000000000044e-01

1.849999999999999978e-01

1.700000000000000122e-01

1.625000000000000056e-01

1.524999999999999967e-01

1.400000000000000133e-01

1.325000000000000067e-01

1.224999999999999978e-01

1.174999999999999933e-01

9.750000000000000333e-02

4.000000000000000083e-02

-2.750000000000000014e-02

-6.250000000000000000e-02

-5.249999999999999806e-02

0.000000000000000000e+00

4.000000000000000083e-02

5.249999999999999806e-02

3.500000000000000333e-02

2.249999999999999917e-02

1.750000000000000167e-02

0.000000000000000000e+00

-2.750000000000000014e-02

-4.000000000000000083e-02

-4.750000000000000056e-02

-7.000000000000000666e-02

-6.500000000000000222e-02

-3.500000000000000333e-02

0.000000000000000000e+00

2.750000000000000014e-02

6.250000000000000000e-02

5.249999999999999806e-02

-2.999999999999999889e-02

-9.750000000000000333e-02

-1.150000000000000050e-01

-8.000000000000000167e-02

-1.750000000000000167e-02

2.249999999999999917e-02

1.250000000000000069e-02

-1.750000000000000167e-02

-2.750000000000000014e-02

-4.000000000000000083e-02

-7.499999999999999722e-02

-1.100000000000000006e-01

-1.275000000000000022e-01

-1.100000000000000006e-01

-7.000000000000000666e-02

-4.000000000000000083e-02

-2.750000000000000014e-02

-1.750000000000000167e-02

-2.750000000000000014e-02

-4.000000000000000083e-02

-6.500000000000000222e-02

-7.000000000000000666e-02

-6.500000000000000222e-02

-5.249999999999999806e-02

-4.000000000000000083e-02

-2.750000000000000014e-02

-2.249999999999999917e-02

0.000000000000000000e+00

5.000000000000000104e-03

5.000000000000000104e-03

1.250000000000000069e-02

2.249999999999999917e-02

2.999999999999999889e-02

4.750000000000000056e-02

6.500000000000000222e-02

8.250000000000000389e-02

9.750000000000000333e-02

8.250000000000000389e-02

5.249999999999999806e-02

2.249999999999999917e-02

-2.750000000000000014e-02

-1.100000000000000006e-01

-6.500000000000000222e-02

4.750000000000000056e-02

1.449999999999999900e-01

2.374999999999999889e-01

2.750000000000000222e-01

2.625000000000000111e-01

2.500000000000000000e-01

2.550000000000000044e-01

2.625000000000000111e-01

2.399999999999999911e-01

2.025000000000000133e-01

1.275000000000000022e-01

2.999999999999999889e-02

-1.049999999999999961e-01

-2.200000000000000011e-01

-3.099999999999999978e-01

-3.724999999999999978e-01

-4.375000000000000000e-01

-5.000000000000000000e-01

-5.649999999999999467e-01

-6.250000000000000000e-01

-6.925000000000000044e-01

-7.924999999999999822e-01

-9.324999999999999956e-01

-1.062500000000000000e+00

-1.225000000000000089e+00

-1.370000000000000107e+00

-1.469999999999999973e+00

-1.562500000000000000e+00

-1.620000000000000107e+00

-1.627499999999999947e+00

-1.584999999999999964e+00

-1.479999999999999982e+00

-1.312500000000000000e+00

-1.125000000000000000e+00

-9.399999999999999467e-01

-7.750000000000000222e-01

-6.175000000000000488e-01

-4.849999999999999867e-01

-3.900000000000000133e-01

-3.549999999999999822e-01

-3.624999999999999889e-01

-3.900000000000000133e-01

-4.124999999999999778e-01

-3.950000000000000178e-01

-3.325000000000000178e-01

-2.374999999999999889e-01

-1.325000000000000067e-01

0.000000000000000000e+00

1.049999999999999961e-01

1.749999999999999889e-01

2.399999999999999911e-01

3.074999999999999956e-01

3.775000000000000022e-01

4.724999999999999756e-01

5.899999999999999689e-01

7.299999999999999822e-01

8.699999999999999956e-01

1.010000000000000009e+00

1.132500000000000062e+00

1.260000000000000009e+00

1.382500000000000062e+00

1.497500000000000053e+00

1.580000000000000071e+00

1.639999999999999902e+00

1.689999999999999947e+00

1.725000000000000089e+00

1.754999999999999893e+00

1.767500000000000071e+00

1.762499999999999956e+00

1.760000000000000009e+00

1.760000000000000009e+00

1.760000000000000009e+00

1.767500000000000071e+00

1.772499999999999964e+00

1.762499999999999956e+00

1.750000000000000000e+00

1.750000000000000000e+00

1.737500000000000044e+00

1.732499999999999929e+00

1.727500000000000036e+00

1.737500000000000044e+00

1.732499999999999929e+00

1.732499999999999929e+00

1.732499999999999929e+00

1.742499999999999938e+00

1.727500000000000036e+00

1.709999999999999964e+00

1.655000000000000027e+00

1.540000000000000036e+00

1.482499999999999929e+00

1.475000000000000089e+00

1.492499999999999938e+00

1.514999999999999902e+00

1.522499999999999964e+00

1.497500000000000053e+00

1.482499999999999929e+00

1.482499999999999929e+00

1.479999999999999982e+00

1.452499999999999902e+00

1.417499999999999982e+00

1.392500000000000071e+00

1.370000000000000107e+00

1.342500000000000027e+00

1.312500000000000000e+00

1.287500000000000089e+00

1.260000000000000009e+00

1.225000000000000089e+00

1.199999999999999956e+00

1.159999999999999920e+00

1.147499999999999964e+00

1.120000000000000107e+00

1.084999999999999964e+00

1.042499999999999982e+00

1.002499999999999947e+00

9.725000000000000311e-01

9.449999999999999512e-01

9.274999999999999911e-01

9.100000000000000311e-01

8.924999999999999600e-01

8.750000000000000000e-01

8.525000000000000355e-01

8.149999999999999467e-01

7.650000000000000133e-01

7.275000000000000355e-01

6.949999999999999512e-01

6.824999999999999956e-01

6.824999999999999956e-01

6.750000000000000444e-01

6.650000000000000355e-01

6.474999999999999645e-01

6.300000000000000044e-01

6.125000000000000444e-01

5.949999999999999734e-01

5.725000000000000089e-01

5.474999999999999867e-01

5.200000000000000178e-01

4.899999999999999911e-01

4.600000000000000200e-01

4.324999999999999956e-01

4.149999999999999800e-01

4.025000000000000244e-01

3.950000000000000178e-01

3.775000000000000022e-01

3.599999999999999867e-01

3.449999999999999734e-01

3.375000000000000222e-01

3.275000000000000133e-01

3.200000000000000067e-01

3.150000000000000022e-01

3.150000000000000022e-01

3.150000000000000022e-01

3.200000000000000067e-01

3.150000000000000022e-01

3.200000000000000067e-01

3.275000000000000133e-01

3.325000000000000178e-01

3.200000000000000067e-01

2.924999999999999822e-01

2.725000000000000200e-01

2.725000000000000200e-01

2.849999999999999756e-01

3.074999999999999956e-01

3.425000000000000266e-01

3.674999999999999933e-01

3.800000000000000044e-01

3.775000000000000022e-01

3.674999999999999933e-01

3.499999999999999778e-01

3.425000000000000266e-01

3.425000000000000266e-01

3.449999999999999734e-01

3.499999999999999778e-01

3.499999999999999778e-01

3.549999999999999822e-01

3.599999999999999867e-01

3.549999999999999822e-01

3.425000000000000266e-01

3.200000000000000067e-01

3.250000000000000111e-01

3.200000000000000067e-01

3.275000000000000133e-01

3.375000000000000222e-01

3.425000000000000266e-01

3.449999999999999734e-01

3.549999999999999822e-01

3.599999999999999867e-01

3.724999999999999978e-01

3.850000000000000089e-01

3.850000000000000089e-01

3.850000000000000089e-01

3.800000000000000044e-01

3.775000000000000022e-01

3.775000000000000022e-01

3.850000000000000089e-01

3.950000000000000178e-01

3.900000000000000133e-01

3.775000000000000022e-01

3.624999999999999889e-01

3.599999999999999867e-01

3.624999999999999889e-01

3.674999999999999933e-01

3.724999999999999978e-01

3.775000000000000022e-01

3.850000000000000089e-01

3.975000000000000200e-01

4.149999999999999800e-01

4.299999999999999933e-01

4.199999999999999845e-01

2.924999999999999822e-01

1.925000000000000044e-01

1.675000000000000100e-01

1.749999999999999889e-01

2.149999999999999967e-01

2.550000000000000044e-01

2.550000000000000044e-01

2.449999999999999956e-01

2.500000000000000000e-01

2.575000000000000067e-01

2.500000000000000000e-01

2.099999999999999922e-01

1.524999999999999967e-01

6.250000000000000000e-02

-8.749999999999999445e-02

-2.399999999999999911e-01

-3.499999999999999778e-01

-4.249999999999999889e-01

-4.600000000000000200e-01

-5.000000000000000000e-01

-5.600000000000000533e-01

-6.400000000000000133e-01

-7.175000000000000266e-01

-8.349999999999999645e-01

-9.849999999999999867e-01

-1.137499999999999956e+00

-1.300000000000000044e+00

-1.447500000000000009e+00

-1.584999999999999964e+00

-1.702499999999999902e+00

-1.812500000000000000e+00

-1.872500000000000053e+00

-1.847499999999999920e+00

-1.727500000000000036e+00

-1.532499999999999973e+00

-1.304999999999999938e+00

-1.107499999999999929e+00

-9.274999999999999911e-01

-7.750000000000000222e-01

-6.474999999999999645e-01

-5.725000000000000089e-01

-5.424999999999999822e-01

-5.474999999999999867e-01

-5.775000000000000133e-01

-6.075000000000000400e-01

-6.125000000000000444e-01

-5.550000000000000488e-01

-4.600000000000000200e-01

-3.275000000000000133e-01

-1.975000000000000089e-01

-9.249999999999999889e-02

0.000000000000000000e+00

7.000000000000000666e-02

1.400000000000000133e-01

2.149999999999999967e-01

3.074999999999999956e-01

4.299999999999999933e-01

5.649999999999999467e-01

7.049999999999999600e-01

8.325000000000000178e-01

9.575000000000000178e-01

1.080000000000000071e+00

1.199999999999999956e+00

1.282499999999999973e+00

1.324999999999999956e+00

1.357499999999999929e+00

1.387499999999999956e+00

1.427499999999999991e+00

1.462499999999999911e+00

1.479999999999999982e+00

1.487500000000000044e+00

1.475000000000000089e+00

1.469999999999999973e+00

1.439999999999999947e+00

1.409999999999999920e+00

1.395000000000000018e+00

1.399999999999999911e+00

1.417499999999999982e+00

1.422500000000000098e+00

1.435000000000000053e+00

1.457500000000000018e+00

1.475000000000000089e+00

1.465000000000000080e+00

1.439999999999999947e+00

1.405000000000000027e+00

1.370000000000000107e+00

1.330000000000000071e+00

1.294999999999999929e+00

1.270000000000000018e+00

1.264999999999999902e+00

1.272499999999999964e+00

1.287500000000000089e+00

1.290000000000000036e+00

1.270000000000000018e+00

1.229999999999999982e+00

1.195000000000000062e+00

1.149999999999999911e+00

1.125000000000000000e+00

1.112500000000000044e+00

1.090000000000000080e+00

1.077499999999999902e+00

1.077499999999999902e+00

1.080000000000000071e+00

1.067499999999999893e+00

1.014999999999999902e+00

9.399999999999999467e-01

8.699999999999999956e-01

8.225000000000000089e-01

7.924999999999999822e-01

7.750000000000000222e-01

7.800000000000000266e-01

8.000000000000000444e-01

8.149999999999999467e-01

7.750000000000000222e-01

6.949999999999999512e-01

6.049999999999999822e-01

5.300000000000000266e-01

4.849999999999999867e-01

4.675000000000000266e-01

4.600000000000000200e-01

4.550000000000000155e-01

4.425000000000000044e-01

4.249999999999999889e-01

4.025000000000000244e-01

3.800000000000000044e-01

3.449999999999999734e-01

3.074999999999999956e-01

2.675000000000000155e-01

2.275000000000000078e-01

1.875000000000000000e-01

1.575000000000000011e-01

1.524999999999999967e-01

1.675000000000000100e-01

2.025000000000000133e-01

2.225000000000000033e-01

2.200000000000000011e-01

1.799999999999999933e-01

1.449999999999999900e-01

1.224999999999999978e-01

1.275000000000000022e-01

1.499999999999999944e-01

1.749999999999999889e-01

1.925000000000000044e-01

2.049999999999999878e-01

2.099999999999999922e-01

2.200000000000000011e-01

2.200000000000000011e-01

2.149999999999999967e-01

2.049999999999999878e-01

1.925000000000000044e-01

1.675000000000000100e-01

1.449999999999999900e-01

1.400000000000000133e-01

1.575000000000000011e-01

1.849999999999999978e-01

2.099999999999999922e-01

2.374999999999999889e-01

2.399999999999999911e-01

2.374999999999999889e-01

2.225000000000000033e-01

2.149999999999999967e-01

2.099999999999999922e-01

2.200000000000000011e-01

2.275000000000000078e-01

2.399999999999999911e-01

2.449999999999999956e-01

2.449999999999999956e-01

2.374999999999999889e-01

2.374999999999999889e-01

2.325000000000000122e-01

2.374999999999999889e-01

2.374999999999999889e-01

2.500000000000000000e-01

2.550000000000000044e-01

2.625000000000000111e-01

2.725000000000000200e-01

2.725000000000000200e-01

2.575000000000000067e-01

2.399999999999999911e-01

2.399999999999999911e-01

2.500000000000000000e-01

2.675000000000000155e-01

2.800000000000000266e-01

2.800000000000000266e-01

2.750000000000000222e-01

2.800000000000000266e-01

2.924999999999999822e-01

3.074999999999999956e-01

3.099999999999999978e-01

3.200000000000000067e-01

3.200000000000000067e-01

3.200000000000000067e-01

3.150000000000000022e-01

3.074999999999999956e-01

2.974999999999999867e-01

2.974999999999999867e-01

2.924999999999999822e-01

2.924999999999999822e-01

2.899999999999999800e-01

2.899999999999999800e-01

2.899999999999999800e-01

3.024999999999999911e-01

3.099999999999999978e-01

3.250000000000000111e-01

3.325000000000000178e-01

3.325000000000000178e-01

3.250000000000000111e-01

3.325000000000000178e-01

3.449999999999999734e-01

3.599999999999999867e-01

2.675000000000000155e-01

1.700000000000000122e-01

1.524999999999999967e-01

1.675000000000000100e-01

2.099999999999999922e-01

2.550000000000000044e-01

2.625000000000000111e-01

2.449999999999999956e-01

2.449999999999999956e-01

2.625000000000000111e-01

2.550000000000000044e-01

2.049999999999999878e-01

1.524999999999999967e-01

7.499999999999999722e-02

-2.999999999999999889e-02

-1.350000000000000089e-01

-2.200000000000000011e-01

-2.849999999999999756e-01

-3.425000000000000266e-01

-4.025000000000000244e-01

-4.675000000000000266e-01

-5.250000000000000222e-01

-5.775000000000000133e-01

-6.574999999999999734e-01

-7.700000000000000178e-01

-9.050000000000000266e-01

-1.080000000000000071e+00

-1.260000000000000009e+00

-1.412500000000000089e+00

-1.532499999999999973e+00

-1.620000000000000107e+00

-1.655000000000000027e+00

-1.632500000000000062e+00

-1.540000000000000036e+00

-1.387499999999999956e+00

-1.189999999999999947e+00

-9.899999999999999911e-01

-7.974999999999999867e-01

-6.175000000000000488e-01

-4.600000000000000200e-01

-3.549999999999999822e-01

-3.024999999999999911e-01

-3.099999999999999978e-01

-3.425000000000000266e-01

-3.775000000000000022e-01

-3.850000000000000089e-01

-3.549999999999999822e-01

-2.899999999999999800e-01

-2.025000000000000133e-01

-8.749999999999999445e-02

4.750000000000000056e-02

1.524999999999999967e-01

2.374999999999999889e-01

3.074999999999999956e-01

3.800000000000000044e-01

4.724999999999999756e-01

5.775000000000000133e-01

6.925000000000000044e-01

8.050000000000000488e-01

9.224999999999999867e-01

1.060000000000000053e+00

1.199999999999999956e+00

1.334999999999999964e+00

1.445000000000000062e+00

1.532499999999999973e+00

1.592500000000000027e+00

1.639999999999999902e+00

1.657499999999999973e+00

1.657499999999999973e+00

1.645000000000000018e+00

1.637499999999999956e+00

1.637499999999999956e+00

1.639999999999999902e+00

1.649999999999999911e+00

1.655000000000000027e+00

1.657499999999999973e+00

1.667499999999999982e+00

1.672500000000000098e+00

1.662500000000000089e+00

1.657499999999999973e+00

1.649999999999999911e+00

1.639999999999999902e+00

1.632500000000000062e+00

1.632500000000000062e+00

1.627499999999999947e+00

1.610000000000000098e+00

1.587499999999999911e+00

1.570000000000000062e+00

1.557500000000000107e+00

1.557500000000000107e+00

1.562500000000000000e+00

1.562500000000000000e+00

1.540000000000000036e+00

1.504999999999999893e+00

1.475000000000000089e+00

1.452499999999999902e+00

1.435000000000000053e+00

1.422500000000000098e+00

1.399999999999999911e+00

1.377499999999999947e+00

1.364999999999999991e+00

1.360000000000000098e+00

1.352500000000000036e+00

1.330000000000000071e+00

1.294999999999999929e+00

1.270000000000000018e+00

1.237500000000000044e+00

1.202499999999999902e+00

1.165000000000000036e+00

1.114999999999999991e+00

1.094999999999999973e+00

1.067499999999999893e+00

1.054999999999999938e+00

1.037500000000000089e+00

1.020000000000000018e+00

1.007500000000000062e+00

1.002499999999999947e+00

9.975000000000000533e-01

9.849999999999999867e-01

9.749999999999999778e-01

9.675000000000000266e-01

9.675000000000000266e-01

9.725000000000000311e-01

9.499999999999999556e-01

9.150000000000000355e-01

8.850000000000000089e-01

8.675000000000000488e-01

8.675000000000000488e-01

8.525000000000000355e-01

8.149999999999999467e-01

7.574999999999999512e-01

6.999999999999999556e-01

6.474999999999999645e-01

6.049999999999999822e-01

5.424999999999999822e-01

4.824999999999999845e-01

4.475000000000000089e-01

4.425000000000000044e-01

4.425000000000000044e-01

4.249999999999999889e-01

3.950000000000000178e-01

3.674999999999999933e-01

3.449999999999999734e-01

3.275000000000000133e-01

3.024999999999999911e-01

2.725000000000000200e-01

2.399999999999999911e-01

2.200000000000000011e-01

1.925000000000000044e-01

1.675000000000000100e-01

1.499999999999999944e-01

1.524999999999999967e-01

1.749999999999999889e-01

1.925000000000000044e-01

2.049999999999999878e-01

2.049999999999999878e-01

1.875000000000000000e-01

1.675000000000000100e-01

1.575000000000000011e-01

1.524999999999999967e-01

1.449999999999999900e-01

1.325000000000000067e-01

1.174999999999999933e-01

1.150000000000000050e-01

1.350000000000000089e-01

1.575000000000000011e-01

1.799999999999999933e-01

1.875000000000000000e-01

1.875000000000000000e-01

1.799999999999999933e-01

1.700000000000000122e-01

1.575000000000000011e-01

1.449999999999999900e-01

1.350000000000000089e-01

1.275000000000000022e-01

1.150000000000000050e-01

1.000000000000000056e-01

9.750000000000000333e-02

1.049999999999999961e-01

1.325000000000000067e-01

1.499999999999999944e-01

1.449999999999999900e-01

1.224999999999999978e-01

8.000000000000000167e-02

4.750000000000000056e-02

5.750000000000000250e-02

9.750000000000000333e-02

1.400000000000000133e-01

1.575000000000000011e-01

1.350000000000000089e-01

1.000000000000000056e-01

8.000000000000000167e-02

6.500000000000000222e-02

6.500000000000000222e-02

8.250000000000000389e-02

1.150000000000000050e-01

1.049999999999999961e-01

5.750000000000000250e-02

1.000000000000000021e-02

-2.999999999999999889e-02

1.250000000000000069e-02

7.499999999999999722e-02

1.275000000000000022e-01

1.350000000000000089e-01

1.000000000000000056e-01

6.250000000000000000e-02

4.499999999999999833e-02

1.750000000000000167e-02

0.000000000000000000e+00

-3.500000000000000333e-02

-1.000000000000000056e-01

-1.400000000000000133e-01

-5.249999999999999806e-02

7.499999999999999722e-02

1.875000000000000000e-01

2.575000000000000067e-01

2.725000000000000200e-01

2.550000000000000044e-01

2.575000000000000067e-01

2.675000000000000155e-01

2.550000000000000044e-01

2.099999999999999922e-01

1.499999999999999944e-01

8.250000000000000389e-02

-2.999999999999999889e-02

-1.499999999999999944e-01

-2.550000000000000044e-01

-3.325000000000000178e-01

-4.149999999999999800e-01

-5.074999999999999512e-01

-5.899999999999999689e-01

-6.700000000000000400e-01

-7.349999999999999867e-01

-7.974999999999999867e-01

-8.924999999999999600e-01

-1.010000000000000009e+00

-1.155000000000000027e+00

-1.324999999999999956e+00

-1.482499999999999929e+00

-1.622500000000000053e+00

-1.742499999999999938e+00

-1.797500000000000098e+00

-1.780000000000000027e+00

-1.707500000000000018e+00

-1.574999999999999956e+00

-1.375000000000000000e+00

-1.142500000000000071e+00

-9.324999999999999956e-01

-7.349999999999999867e-01

-5.600000000000000533e-01

-4.425000000000000044e-01

-3.900000000000000133e-01

-3.800000000000000044e-01

-4.199999999999999845e-01

-4.675000000000000266e-01

-4.724999999999999756e-01

-4.375000000000000000e-01

-3.900000000000000133e-01

-3.325000000000000178e-01

-2.750000000000000222e-01

-2.149999999999999967e-01

-1.400000000000000133e-01

-3.500000000000000333e-02

1.150000000000000050e-01

2.750000000000000222e-01

4.324999999999999956e-01

5.524999999999999911e-01

6.250000000000000000e-01

6.600000000000000311e-01

6.999999999999999556e-01

8.000000000000000444e-01

9.549999999999999600e-01

1.112500000000000044e+00

1.225000000000000089e+00

1.287500000000000089e+00

1.307500000000000107e+00

1.300000000000000044e+00

1.277500000000000080e+00

1.254999999999999893e+00

1.242499999999999938e+00

1.287500000000000089e+00

1.409999999999999920e+00

1.557500000000000107e+00

1.655000000000000027e+00

1.614999999999999991e+00

1.399999999999999911e+00

1.137499999999999956e+00

9.449999999999999512e-01

8.850000000000000089e-01

9.725000000000000311e-01

1.129999999999999893e+00

1.219999999999999973e+00

1.252499999999999947e+00

1.282499999999999973e+00

1.364999999999999991e+00

1.527500000000000080e+00

1.762499999999999956e+00

1.995000000000000107e+00

2.162500000000000089e+00

2.240000000000000213e+00

2.274999999999999911e+00

2.274999999999999911e+00

2.240000000000000213e+00

2.162500000000000089e+00

2.040000000000000036e+00

1.919999999999999929e+00

1.830000000000000071e+00

1.772499999999999964e+00

1.727500000000000036e+00

1.689999999999999947e+00

1.645000000000000018e+00

1.610000000000000098e+00

1.587499999999999911e+00

1.562500000000000000e+00

1.522499999999999964e+00

1.465000000000000080e+00

1.395000000000000018e+00

1.312500000000000000e+00

1.242499999999999938e+00

1.189999999999999947e+00

1.165000000000000036e+00

1.129999999999999893e+00

1.067499999999999893e+00

9.625000000000000222e-01

8.275000000000000133e-01

7.225000000000000311e-01

6.824999999999999956e-01

7.225000000000000311e-01

8.149999999999999467e-01

9.224999999999999867e-01

9.849999999999999867e-01

9.549999999999999600e-01

8.675000000000000488e-01

8.100000000000000533e-01

8.050000000000000488e-01

8.575000000000000400e-01

9.224999999999999867e-01

9.274999999999999911e-01

8.750000000000000000e-01

8.349999999999999645e-01

8.149999999999999467e-01

7.924999999999999822e-01

7.700000000000000178e-01

7.524999999999999467e-01

7.524999999999999467e-01

7.700000000000000178e-01

7.700000000000000178e-01

7.349999999999999867e-01

6.824999999999999956e-01

6.250000000000000000e-01

5.775000000000000133e-01

5.300000000000000266e-01

4.849999999999999867e-01

4.500000000000000111e-01

4.475000000000000089e-01

4.600000000000000200e-01

5.024999999999999467e-01

5.725000000000000089e-01

6.300000000000000044e-01

6.774999999999999911e-01

6.949999999999999512e-01

6.999999999999999556e-01

6.949999999999999512e-01

6.949999999999999512e-01

6.875000000000000000e-01

6.574999999999999734e-01

6.225000000000000533e-01

5.775000000000000133e-01

5.424999999999999822e-01

5.200000000000000178e-01

5.300000000000000266e-01

5.474999999999999867e-01

5.550000000000000488e-01

5.474999999999999867e-01

5.374999999999999778e-01

5.350000000000000311e-01

5.350000000000000311e-01

5.374999999999999778e-01

5.200000000000000178e-01

5.024999999999999467e-01

4.899999999999999911e-01

4.824999999999999845e-01

4.675000000000000266e-01

4.550000000000000155e-01

4.324999999999999956e-01

4.249999999999999889e-01

4.124999999999999778e-01

3.950000000000000178e-01

3.775000000000000022e-01

3.850000000000000089e-01

4.299999999999999933e-01

5.074999999999999512e-01

5.825000000000000178e-01

6.175000000000000488e-01

5.899999999999999689e-01

5.374999999999999778e-01

4.949999999999999956e-01

4.824999999999999845e-01

4.849999999999999867e-01

4.949999999999999956e-01

4.949999999999999956e-01

4.849999999999999867e-01

4.650000000000000244e-01

4.550000000000000155e-01

4.650000000000000244e-01

4.724999999999999756e-01

4.724999999999999756e-01

4.675000000000000266e-01

4.724999999999999756e-01

4.724999999999999756e-01

4.675000000000000266e-01

4.550000000000000155e-01

4.475000000000000089e-01

4.375000000000000000e-01

4.475000000000000089e-01

4.600000000000000200e-01

4.650000000000000244e-01

4.375000000000000000e-01

4.074999999999999734e-01

3.850000000000000089e-01

3.250000000000000111e-01

1.925000000000000044e-01

1.575000000000000011e-01

1.675000000000000100e-01

1.875000000000000000e-01

2.374999999999999889e-01

2.625000000000000111e-01

2.575000000000000067e-01

2.449999999999999956e-01

2.550000000000000044e-01

2.625000000000000111e-01

2.399999999999999911e-01

1.975000000000000089e-01

1.350000000000000089e-01

3.500000000000000333e-02

-1.100000000000000006e-01

-2.374999999999999889e-01

-3.325000000000000178e-01

-4.149999999999999800e-01

-5.074999999999999512e-01

-5.899999999999999689e-01

-6.400000000000000133e-01

-6.600000000000000311e-01

-6.875000000000000000e-01

-7.624999999999999556e-01

-9.024999999999999689e-01

-1.094999999999999973e+00

-1.312500000000000000e+00

-1.500000000000000000e+00

-1.645000000000000018e+00

-1.750000000000000000e+00

-1.807500000000000107e+00

-1.802499999999999991e+00

-1.719999999999999973e+00

-1.557500000000000107e+00

-1.342500000000000027e+00

-1.120000000000000107e+00

-9.224999999999999867e-01

-7.624999999999999556e-01

-6.400000000000000133e-01

-5.424999999999999822e-01

-4.824999999999999845e-01

-4.500000000000000111e-01

-4.375000000000000000e-01

-4.299999999999999933e-01

-4.199999999999999845e-01

-3.900000000000000133e-01

-3.425000000000000266e-01

-2.675000000000000155e-01

-1.675000000000000100e-01

-4.499999999999999833e-02

7.499999999999999722e-02

1.675000000000000100e-01

2.449999999999999956e-01

3.250000000000000111e-01

4.025000000000000244e-01

4.949999999999999956e-01

6.175000000000000488e-01

7.475000000000000533e-01

8.800000000000000044e-01

1.010000000000000009e+00

1.125000000000000000e+00

1.237500000000000044e+00

1.347499999999999920e+00

1.445000000000000062e+00

1.532499999999999973e+00

1.580000000000000071e+00

1.602500000000000036e+00

1.602500000000000036e+00

1.597499999999999920e+00

1.580000000000000071e+00

1.567499999999999893e+00

1.557500000000000107e+00

1.552499999999999991e+00

1.557500000000000107e+00

1.557500000000000107e+00

1.540000000000000036e+00

1.510000000000000009e+00

1.497500000000000053e+00

1.514999999999999902e+00

1.557500000000000107e+00

1.602500000000000036e+00

1.637499999999999956e+00

1.649999999999999911e+00

1.637499999999999956e+00

1.604999999999999982e+00

1.574999999999999956e+00

1.557500000000000107e+00

1.557500000000000107e+00

1.562500000000000000e+00

1.562500000000000000e+00

1.540000000000000036e+00

1.532499999999999973e+00

1.517500000000000071e+00

1.500000000000000000e+00

1.475000000000000089e+00

1.445000000000000062e+00

1.412500000000000089e+00

1.392500000000000071e+00

1.364999999999999991e+00

1.342500000000000027e+00

1.317499999999999893e+00

1.287500000000000089e+00

1.247500000000000053e+00

1.217500000000000027e+00

1.207500000000000018e+00

1.199999999999999956e+00

1.195000000000000062e+00

1.177499999999999991e+00

1.142500000000000071e+00

1.077499999999999902e+00

9.975000000000000533e-01

9.449999999999999512e-01

9.200000000000000400e-01

9.200000000000000400e-01

9.324999999999999956e-01

9.399999999999999467e-01

9.399999999999999467e-01

9.200000000000000400e-01

8.800000000000000044e-01

8.349999999999999645e-01

7.974999999999999867e-01

7.700000000000000178e-01

7.650000000000000133e-01

7.700000000000000178e-01

7.700000000000000178e-01

7.650000000000000133e-01

7.574999999999999512e-01

7.275000000000000355e-01

6.925000000000000044e-01

6.600000000000000311e-01

6.250000000000000000e-01

5.949999999999999734e-01

5.550000000000000488e-01

5.250000000000000222e-01

5.000000000000000000e-01

4.600000000000000200e-01

4.199999999999999845e-01

3.850000000000000089e-01

3.674999999999999933e-01

3.624999999999999889e-01

3.674999999999999933e-01

3.800000000000000044e-01

3.900000000000000133e-01

3.900000000000000133e-01

3.775000000000000022e-01

3.549999999999999822e-01

3.275000000000000133e-01

3.099999999999999978e-01

2.924999999999999822e-01

2.725000000000000200e-01

2.550000000000000044e-01

2.399999999999999911e-01

2.374999999999999889e-01

2.374999999999999889e-01

2.399999999999999911e-01

2.325000000000000122e-01

2.049999999999999878e-01

1.700000000000000122e-01

1.524999999999999967e-01

1.575000000000000011e-01

1.849999999999999978e-01

2.225000000000000033e-01

2.550000000000000044e-01

2.625000000000000111e-01

2.500000000000000000e-01

2.374999999999999889e-01

2.325000000000000122e-01

2.449999999999999956e-01

2.750000000000000222e-01

2.974999999999999867e-01

3.074999999999999956e-01

2.924999999999999822e-01

2.849999999999999756e-01

2.800000000000000266e-01

2.750000000000000222e-01

2.625000000000000111e-01

2.500000000000000000e-01

2.449999999999999956e-01

2.449999999999999956e-01

2.550000000000000044e-01

2.575000000000000067e-01

2.500000000000000000e-01

2.449999999999999956e-01

2.399999999999999911e-01

2.550000000000000044e-01

2.675000000000000155e-01

2.575000000000000067e-01

2.374999999999999889e-01

2.200000000000000011e-01

2.099999999999999922e-01

2.225000000000000033e-01

2.550000000000000044e-01

2.800000000000000266e-01

3.074999999999999956e-01

3.200000000000000067e-01

3.275000000000000133e-01

3.200000000000000067e-01

3.099999999999999978e-01

2.974999999999999867e-01

2.924999999999999822e-01

2.800000000000000266e-01

2.725000000000000200e-01

2.625000000000000111e-01

2.625000000000000111e-01

2.725000000000000200e-01

2.800000000000000266e-01

2.800000000000000266e-01

2.800000000000000266e-01

2.800000000000000266e-01

2.550000000000000044e-01

1.325000000000000067e-01

8.749999999999999445e-02

1.150000000000000050e-01

1.675000000000000100e-01

2.325000000000000122e-01

2.675000000000000155e-01

2.575000000000000067e-01

2.449999999999999956e-01

2.550000000000000044e-01

2.625000000000000111e-01

2.500000000000000000e-01

2.149999999999999967e-01

1.700000000000000122e-01

9.750000000000000333e-02

-3.500000000000000333e-02

-1.749999999999999889e-01

-2.974999999999999867e-01

-3.800000000000000044e-01

-4.550000000000000155e-01

-5.174999999999999600e-01

-5.699999999999999512e-01

-6.125000000000000444e-01

-6.700000000000000400e-01

-7.624999999999999556e-01

-8.924999999999999600e-01

-1.054999999999999938e+00

-1.247500000000000053e+00

-1.439999999999999947e+00

-1.597499999999999920e+00

-1.725000000000000089e+00

-1.807500000000000107e+00

-1.820000000000000062e+00

-1.760000000000000009e+00

-1.620000000000000107e+00

-1.422500000000000098e+00

-1.207500000000000018e+00

-1.014999999999999902e+00

-8.449999999999999734e-01

-6.999999999999999556e-01

-5.775000000000000133e-01

-5.024999999999999467e-01

-4.824999999999999845e-01

-4.899999999999999911e-01

-5.200000000000000178e-01

-5.374999999999999778e-01

-5.174999999999999600e-01

-4.475000000000000089e-01

-3.599999999999999867e-01

-2.500000000000000000e-01

-1.350000000000000089e-01

-2.249999999999999917e-02

8.250000000000000389e-02

1.575000000000000011e-01

2.225000000000000033e-01

2.899999999999999800e-01

3.800000000000000044e-01

5.024999999999999467e-01

6.400000000000000133e-01

7.750000000000000222e-01

9.024999999999999689e-01

1.027500000000000080e+00

1.147499999999999964e+00

1.260000000000000009e+00

1.364999999999999991e+00

1.439999999999999947e+00

1.492499999999999938e+00

1.532499999999999973e+00

1.567499999999999893e+00

1.587499999999999911e+00

1.580000000000000071e+00

1.567499999999999893e+00

1.550000000000000044e+00

1.544999999999999929e+00

1.557500000000000107e+00

1.574999999999999956e+00

1.587499999999999911e+00

1.587499999999999911e+00

1.587499999999999911e+00

1.580000000000000071e+00

1.574999999999999956e+00

1.567499999999999893e+00

1.562500000000000000e+00

1.552499999999999991e+00

1.540000000000000036e+00

1.522499999999999964e+00

1.510000000000000009e+00

1.497500000000000053e+00

1.479999999999999982e+00

1.457500000000000018e+00

1.445000000000000062e+00

1.429999999999999938e+00

1.412500000000000089e+00

1.392500000000000071e+00

1.357499999999999929e+00

1.324999999999999956e+00

1.300000000000000044e+00

1.277500000000000080e+00

1.252499999999999947e+00

1.225000000000000089e+00

1.207500000000000018e+00

1.199999999999999956e+00

1.177499999999999991e+00

1.142500000000000071e+00

1.112500000000000044e+00

1.080000000000000071e+00

1.050000000000000044e+00

1.014999999999999902e+00

9.749999999999999778e-01

9.324999999999999956e-01

8.924999999999999600e-01

8.625000000000000444e-01

8.275000000000000133e-01

7.924999999999999822e-01

7.624999999999999556e-01

7.475000000000000533e-01

7.299999999999999822e-01

7.099999999999999645e-01

6.925000000000000044e-01

6.774999999999999911e-01

6.650000000000000355e-01

6.600000000000000311e-01

6.574999999999999734e-01

6.474999999999999645e-01

6.350000000000000089e-01

6.049999999999999822e-01

5.600000000000000533e-01

4.899999999999999911e-01

4.475000000000000089e-01

4.124999999999999778e-01

3.800000000000000044e-01

3.449999999999999734e-01

3.275000000000000133e-01

3.150000000000000022e-01

3.150000000000000022e-01

3.099999999999999978e-01

3.074999999999999956e-01

2.750000000000000222e-01

2.449999999999999956e-01

2.149999999999999967e-01

1.975000000000000089e-01

1.849999999999999978e-01

1.625000000000000056e-01

1.275000000000000022e-01

8.749999999999999445e-02

7.000000000000000666e-02

7.000000000000000666e-02

9.750000000000000333e-02

1.174999999999999933e-01

1.325000000000000067e-01

1.049999999999999961e-01

6.500000000000000222e-02

2.999999999999999889e-02

2.750000000000000014e-02

4.750000000000000056e-02

8.749999999999999445e-02

1.150000000000000050e-01

1.275000000000000022e-01

1.325000000000000067e-01

1.400000000000000133e-01

1.350000000000000089e-01

1.224999999999999978e-01

1.100000000000000006e-01

1.000000000000000056e-01

8.749999999999999445e-02

8.749999999999999445e-02

8.000000000000000167e-02

6.500000000000000222e-02

4.499999999999999833e-02

2.750000000000000014e-02

1.750000000000000167e-02

2.999999999999999889e-02

6.500000000000000222e-02

1.000000000000000056e-01

1.224999999999999978e-01

1.150000000000000050e-01

8.749999999999999445e-02

6.250000000000000000e-02

4.499999999999999833e-02

2.999999999999999889e-02

2.750000000000000014e-02

3.500000000000000333e-02

6.250000000000000000e-02

9.249999999999999889e-02

1.150000000000000050e-01

1.049999999999999961e-01

9.249999999999999889e-02

9.249999999999999889e-02

1.049999999999999961e-01

1.275000000000000022e-01

1.350000000000000089e-01

1.224999999999999978e-01

1.000000000000000056e-01

8.250000000000000389e-02

8.749999999999999445e-02

1.000000000000000056e-01

1.100000000000000006e-01

1.049999999999999961e-01

8.749999999999999445e-02

8.000000000000000167e-02

8.250000000000000389e-02

9.249999999999999889e-02

1.000000000000000056e-01

1.100000000000000006e-01

1.150000000000000050e-01

1.049999999999999961e-01

9.750000000000000333e-02

8.749999999999999445e-02

9.249999999999999889e-02

1.000000000000000056e-01

1.000000000000000056e-01

1.750000000000000167e-02

5.000000000000000104e-03

7.000000000000000666e-02

1.449999999999999900e-01

2.275000000000000078e-01

2.625000000000000111e-01

2.625000000000000111e-01

2.500000000000000000e-01

2.575000000000000067e-01

2.625000000000000111e-01

2.500000000000000000e-01

2.149999999999999967e-01

1.675000000000000100e-01

9.249999999999999889e-02

-4.499999999999999833e-02

-1.799999999999999933e-01

-3.099999999999999978e-01

-3.975000000000000200e-01

-4.650000000000000244e-01

-5.250000000000000222e-01

-5.875000000000000222e-01

-6.474999999999999645e-01

-7.125000000000000222e-01

-8.000000000000000444e-01

-9.024999999999999689e-01

-1.037500000000000089e+00

-1.217500000000000027e+00

-1.399999999999999911e+00

-1.544999999999999929e+00

-1.662500000000000089e+00

-1.732499999999999929e+00

-1.760000000000000009e+00

-1.715000000000000080e+00

-1.610000000000000098e+00

-1.439999999999999947e+00

-1.207500000000000018e+00

-1.014999999999999902e+00

-8.149999999999999467e-01

-6.350000000000000089e-01

-4.899999999999999911e-01

-3.950000000000000178e-01

-3.549999999999999822e-01

-3.549999999999999822e-01

-3.800000000000000044e-01

-3.950000000000000178e-01

-3.850000000000000089e-01

-3.425000000000000266e-01

-2.800000000000000266e-01

-1.925000000000000044e-01

-7.499999999999999722e-02

8.000000000000000167e-02

2.049999999999999878e-01

3.074999999999999956e-01

3.975000000000000200e-01

4.824999999999999845e-01

5.600000000000000533e-01

6.524999999999999689e-01

7.574999999999999512e-01

8.800000000000000044e-01

1.024999999999999911e+00

1.167499999999999982e+00

1.317499999999999893e+00

1.439999999999999947e+00

1.532499999999999973e+00

1.592500000000000027e+00

1.622500000000000053e+00

1.639999999999999902e+00

1.649999999999999911e+00

1.662500000000000089e+00

1.675000000000000044e+00

1.685000000000000053e+00

1.692499999999999893e+00

1.692499999999999893e+00

1.692499999999999893e+00

1.685000000000000053e+00

1.679999999999999938e+00

1.675000000000000044e+00

1.679999999999999938e+00

1.685000000000000053e+00

1.685000000000000053e+00

1.692499999999999893e+00

1.672500000000000098e+00

1.672500000000000098e+00

1.667499999999999982e+00

1.655000000000000027e+00

1.637499999999999956e+00

1.620000000000000107e+00

1.602500000000000036e+00

1.584999999999999964e+00

1.544999999999999929e+00

1.500000000000000000e+00

1.487500000000000044e+00

1.487500000000000044e+00

1.497500000000000053e+00

1.497500000000000053e+00

1.482499999999999929e+00

1.457500000000000018e+00

1.429999999999999938e+00

1.409999999999999920e+00

1.387499999999999956e+00

1.364999999999999991e+00

1.334999999999999964e+00

1.294999999999999929e+00

1.260000000000000009e+00

1.235000000000000098e+00

1.219999999999999973e+00

1.202499999999999902e+00

1.182500000000000107e+00

1.149999999999999911e+00

1.114999999999999991e+00

1.077499999999999902e+00

1.044999999999999929e+00

1.014999999999999902e+00

9.925000000000000488e-01

9.725000000000000311e-01

9.449999999999999512e-01

9.100000000000000311e-01

8.850000000000000089e-01

8.625000000000000444e-01

8.449999999999999734e-01

8.275000000000000133e-01

8.149999999999999467e-01

7.924999999999999822e-01

7.800000000000000266e-01

7.574999999999999512e-01

7.399999999999999911e-01

7.225000000000000311e-01

6.999999999999999556e-01

6.824999999999999956e-01

6.600000000000000311e-01

6.350000000000000089e-01

6.125000000000000444e-01

5.899999999999999689e-01

5.699999999999999512e-01

5.474999999999999867e-01

5.250000000000000222e-01

5.174999999999999600e-01

4.949999999999999956e-01

4.899999999999999911e-01

4.849999999999999867e-01

4.774999999999999800e-01

4.500000000000000111e-01

4.299999999999999933e-01

4.025000000000000244e-01

3.850000000000000089e-01

3.775000000000000022e-01

3.775000000000000022e-01

3.850000000000000089e-01

3.975000000000000200e-01

3.975000000000000200e-01

3.950000000000000178e-01

3.800000000000000044e-01

3.599999999999999867e-01

3.449999999999999734e-01

3.425000000000000266e-01

3.375000000000000222e-01

3.449999999999999734e-01

3.549999999999999822e-01

3.624999999999999889e-01

3.599999999999999867e-01

3.599999999999999867e-01

3.599999999999999867e-01

3.624999999999999889e-01

3.775000000000000022e-01

3.775000000000000022e-01

3.674999999999999933e-01

3.624999999999999889e-01

3.674999999999999933e-01

3.775000000000000022e-01

3.724999999999999978e-01

3.624999999999999889e-01

3.499999999999999778e-01

3.449999999999999734e-01

3.499999999999999778e-01

3.599999999999999867e-01

3.674999999999999933e-01

3.775000000000000022e-01

3.800000000000000044e-01

3.775000000000000022e-01

3.724999999999999978e-01

3.599999999999999867e-01

3.549999999999999822e-01

3.549999999999999822e-01

3.449999999999999734e-01

3.449999999999999734e-01

3.425000000000000266e-01

3.425000000000000266e-01

3.325000000000000178e-01

3.250000000000000111e-01

3.250000000000000111e-01

3.275000000000000133e-01

3.425000000000000266e-01

3.499999999999999778e-01

3.624999999999999889e-01

3.674999999999999933e-01

3.724999999999999978e-01

3.775000000000000022e-01

3.724999999999999978e-01

3.549999999999999822e-01

3.325000000000000178e-01

3.250000000000000111e-01

3.200000000000000067e-01

3.074999999999999956e-01

2.750000000000000222e-01

2.625000000000000111e-01

2.550000000000000044e-01

2.725000000000000200e-01

3.024999999999999911e-01

3.200000000000000067e-01

3.325000000000000178e-01

2.500000000000000000e-01

1.625000000000000056e-01

1.449999999999999900e-01

1.675000000000000100e-01

2.099999999999999922e-01

2.575000000000000067e-01

2.625000000000000111e-01

2.449999999999999956e-01

2.449999999999999956e-01

2.625000000000000111e-01

2.550000000000000044e-01

2.099999999999999922e-01

1.449999999999999900e-01

6.250000000000000000e-02

-7.000000000000000666e-02

-2.025000000000000133e-01

-3.250000000000000111e-01

-4.124999999999999778e-01

-4.774999999999999800e-01

-5.374999999999999778e-01

-6.075000000000000400e-01

-6.650000000000000355e-01

-7.225000000000000311e-01

-8.050000000000000488e-01

-9.200000000000000400e-01

-1.067499999999999893e+00

-1.242499999999999938e+00

-1.445000000000000062e+00

-1.622500000000000053e+00

-1.767500000000000071e+00

-1.864999999999999991e+00

-1.902500000000000080e+00

-1.867499999999999938e+00

-1.772499999999999964e+00

-1.622500000000000053e+00

-1.435000000000000053e+00

-1.219999999999999973e+00

-1.020000000000000018e+00

-8.275000000000000133e-01

-6.750000000000000444e-01

-5.699999999999999512e-01

-5.200000000000000178e-01

-5.200000000000000178e-01

-5.350000000000000311e-01

-5.524999999999999911e-01

-5.474999999999999867e-01

-5.024999999999999467e-01

-4.299999999999999933e-01

-3.250000000000000111e-01

-1.975000000000000089e-01

-7.499999999999999722e-02

4.750000000000000056e-02

1.350000000000000089e-01

2.099999999999999922e-01

2.849999999999999756e-01

3.724999999999999978e-01

4.650000000000000244e-01

5.649999999999999467e-01

6.824999999999999956e-01

8.149999999999999467e-01

9.625000000000000222e-01

1.114999999999999991e+00

1.260000000000000009e+00

1.387499999999999956e+00

1.479999999999999982e+00

1.550000000000000044e+00

1.587499999999999911e+00

1.610000000000000098e+00

1.610000000000000098e+00

1.604999999999999982e+00

1.602500000000000036e+00

1.587499999999999911e+00

1.584999999999999964e+00

1.584999999999999964e+00

1.587499999999999911e+00

1.584999999999999964e+00

1.574999999999999956e+00

1.570000000000000062e+00

1.570000000000000062e+00

1.570000000000000062e+00

1.570000000000000062e+00

1.567499999999999893e+00

1.570000000000000062e+00

1.570000000000000062e+00

1.570000000000000062e+00

1.567499999999999893e+00

1.562500000000000000e+00

1.544999999999999929e+00

1.522499999999999964e+00

1.500000000000000000e+00

1.487500000000000044e+00

1.469999999999999973e+00

1.462499999999999911e+00

1.447500000000000009e+00

1.439999999999999947e+00

1.417499999999999982e+00

1.395000000000000018e+00

1.364999999999999991e+00

1.340000000000000080e+00

1.317499999999999893e+00

1.294999999999999929e+00

1.264999999999999902e+00

1.229999999999999982e+00

1.202499999999999902e+00

1.172500000000000098e+00

1.147499999999999964e+00

1.114999999999999991e+00

1.090000000000000080e+00

1.067499999999999893e+00

1.044999999999999929e+00

1.020000000000000018e+00

9.975000000000000533e-01

9.799999999999999822e-01

9.625000000000000222e-01

9.224999999999999867e-01

8.750000000000000000e-01

8.100000000000000533e-01

7.349999999999999867e-01

6.574999999999999734e-01

5.775000000000000133e-01

4.849999999999999867e-01

3.975000000000000200e-01

3.200000000000000067e-01

2.575000000000000067e-01

2.049999999999999878e-01

1.449999999999999900e-01

2.750000000000000014e-02

-1.849999999999999978e-01

-4.249999999999999889e-01

-6.600000000000000311e-01

-8.625000000000000444e-01

-1.050000000000000044e+00

-1.252499999999999947e+00

-1.487500000000000044e+00

-1.715000000000000080e+00

-1.899999999999999911e+00

-2.022499999999999964e+00

-2.092499999999999805e+00

-2.127499999999999947e+00

-2.129999999999999893e+00

-2.077500000000000124e+00

-1.969999999999999973e+00

-1.820000000000000062e+00

-1.655000000000000027e+00

-1.479999999999999982e+00

-1.300000000000000044e+00

-1.120000000000000107e+00

-9.375000000000000000e-01

-7.524999999999999467e-01

-5.649999999999999467e-01

-3.800000000000000044e-01

-2.049999999999999878e-01

-5.249999999999999806e-02

9.750000000000000333e-02

2.049999999999999878e-01

3.200000000000000067e-01

4.650000000000000244e-01

6.125000000000000444e-01

7.475000000000000533e-01

8.675000000000000488e-01

9.725000000000000311e-01

1.077499999999999902e+00

1.165000000000000036e+00

1.247500000000000053e+00

1.294999999999999929e+00

1.324999999999999956e+00

1.334999999999999964e+00

1.347499999999999920e+00

1.364999999999999991e+00

1.382500000000000062e+00

1.382500000000000062e+00

1.377499999999999947e+00

1.377499999999999947e+00

1.392500000000000071e+00

1.409999999999999920e+00

1.429999999999999938e+00

1.447500000000000009e+00

1.452499999999999902e+00

1.457500000000000018e+00

1.462499999999999911e+00

1.465000000000000080e+00

1.462499999999999911e+00

1.457500000000000018e+00

1.447500000000000009e+00

1.445000000000000062e+00

1.435000000000000053e+00

1.427499999999999991e+00

1.405000000000000027e+00

1.382500000000000062e+00

1.360000000000000098e+00

1.352500000000000036e+00

1.342500000000000027e+00

1.342500000000000027e+00

1.330000000000000071e+00

1.294999999999999929e+00

1.242499999999999938e+00

1.185000000000000053e+00

1.132500000000000062e+00

1.102500000000000036e+00

1.077499999999999902e+00

1.050000000000000044e+00

1.014999999999999902e+00

9.799999999999999822e-01

9.499999999999999556e-01

9.150000000000000355e-01

8.675000000000000488e-01

8.050000000000000488e-01

7.475000000000000533e-01

6.999999999999999556e-01

6.750000000000000444e-01

5.699999999999999512e-01

3.900000000000000133e-01

2.800000000000000266e-01

2.200000000000000011e-01

2.049999999999999878e-01

2.374999999999999889e-01

2.500000000000000000e-01

2.399999999999999911e-01

2.374999999999999889e-01

2.500000000000000000e-01

2.550000000000000044e-01

2.099999999999999922e-01

1.275000000000000022e-01

1.000000000000000021e-02

-1.499999999999999944e-01

-3.200000000000000067e-01

-4.675000000000000266e-01

-5.875000000000000222e-01

-6.750000000000000444e-01

-7.574999999999999512e-01

-8.275000000000000133e-01

-8.699999999999999956e-01

-9.050000000000000266e-01

-9.575000000000000178e-01

-1.044999999999999929e+00

-1.172500000000000098e+00

-1.340000000000000080e+00

-1.534999999999999920e+00

-1.727500000000000036e+00

-1.895000000000000018e+00

-2.004999999999999893e+00

-2.057500000000000107e+00

-2.029999999999999805e+00

-1.935000000000000053e+00

-1.812500000000000000e+00

-1.655000000000000027e+00

-1.479999999999999982e+00

-1.294999999999999929e+00

-1.112500000000000044e+00

-9.399999999999999467e-01

-7.974999999999999867e-01

-6.949999999999999512e-01

-6.400000000000000133e-01

-6.125000000000000444e-01

-5.999999999999999778e-01

-6.049999999999999822e-01

-6.125000000000000444e-01

-5.899999999999999689e-01

-5.300000000000000266e-01

-4.249999999999999889e-01

-2.800000000000000266e-01

-1.224999999999999978e-01

1.750000000000000167e-02

1.224999999999999978e-01

1.975000000000000089e-01

2.625000000000000111e-01

3.275000000000000133e-01

4.199999999999999845e-01

5.474999999999999867e-01

7.049999999999999600e-01

8.499999999999999778e-01

9.749999999999999778e-01

1.090000000000000080e+00

1.189999999999999947e+00

1.287500000000000089e+00

1.370000000000000107e+00

1.439999999999999947e+00

1.504999999999999893e+00

1.552499999999999991e+00

1.580000000000000071e+00

1.597499999999999920e+00

1.597499999999999920e+00

1.602500000000000036e+00

1.602500000000000036e+00

1.592500000000000027e+00

1.574999999999999956e+00

1.570000000000000062e+00

1.570000000000000062e+00

1.574999999999999956e+00

1.580000000000000071e+00

1.570000000000000062e+00

1.557500000000000107e+00

1.540000000000000036e+00

1.514999999999999902e+00

1.500000000000000000e+00

1.487500000000000044e+00

1.492499999999999938e+00

1.462499999999999911e+00

1.452499999999999902e+00

1.435000000000000053e+00

1.417499999999999982e+00

1.382500000000000062e+00

1.342500000000000027e+00

1.322500000000000009e+00

1.254999999999999893e+00

1.212499999999999911e+00

1.172500000000000098e+00

1.147499999999999964e+00

1.129999999999999893e+00

1.120000000000000107e+00

1.112500000000000044e+00

1.084999999999999964e+00

1.024999999999999911e+00

9.725000000000000311e-01

9.224999999999999867e-01

9.024999999999999689e-01

8.800000000000000044e-01

8.575000000000000400e-01

8.149999999999999467e-01

7.524999999999999467e-01

6.949999999999999512e-01

6.424999999999999600e-01

5.949999999999999734e-01

5.600000000000000533e-01

5.250000000000000222e-01

4.899999999999999911e-01

4.650000000000000244e-01

4.425000000000000044e-01

4.324999999999999956e-01

4.199999999999999845e-01

3.800000000000000044e-01

3.325000000000000178e-01

2.800000000000000266e-01

2.449999999999999956e-01

2.225000000000000033e-01

2.099999999999999922e-01

1.925000000000000044e-01

1.675000000000000100e-01

1.524999999999999967e-01

1.499999999999999944e-01

1.449999999999999900e-01

1.400000000000000133e-01

1.275000000000000022e-01

9.249999999999999889e-02

5.249999999999999806e-02

2.750000000000000014e-02

1.250000000000000069e-02

1.250000000000000069e-02

1.750000000000000167e-02

2.999999999999999889e-02

4.000000000000000083e-02

3.500000000000000333e-02

1.250000000000000069e-02

-2.249999999999999917e-02

-4.000000000000000083e-02

-4.000000000000000083e-02

-4.499999999999999833e-02

-4.499999999999999833e-02

-4.499999999999999833e-02

-3.500000000000000333e-02

-2.999999999999999889e-02

-2.750000000000000014e-02

-4.000000000000000083e-02

-4.750000000000000056e-02

-5.750000000000000250e-02

-5.249999999999999806e-02

-4.499999999999999833e-02

-2.999999999999999889e-02

0.000000000000000000e+00

1.750000000000000167e-02

2.999999999999999889e-02

3.500000000000000333e-02

2.999999999999999889e-02

2.750000000000000014e-02

1.250000000000000069e-02

1.000000000000000021e-02

1.000000000000000021e-02

1.250000000000000069e-02

2.750000000000000014e-02

3.500000000000000333e-02

4.499999999999999833e-02

5.249999999999999806e-02

6.250000000000000000e-02

6.500000000000000222e-02

7.499999999999999722e-02

9.249999999999999889e-02

1.100000000000000006e-01

1.224999999999999978e-01

1.325000000000000067e-01

1.275000000000000022e-01

1.325000000000000067e-01

1.325000000000000067e-01

1.350000000000000089e-01

1.350000000000000089e-01

1.449999999999999900e-01

1.449999999999999900e-01

1.499999999999999944e-01

1.524999999999999967e-01

1.524999999999999967e-01

1.575000000000000011e-01

1.700000000000000122e-01

1.799999999999999933e-01

1.849999999999999978e-01

1.875000000000000000e-01

1.849999999999999978e-01

1.849999999999999978e-01

1.849999999999999978e-01

1.925000000000000044e-01

2.049999999999999878e-01

2.149999999999999967e-01

2.225000000000000033e-01

2.325000000000000122e-01

2.374999999999999889e-01

2.399999999999999911e-01

2.449999999999999956e-01

2.449999999999999956e-01

2.449999999999999956e-01

2.500000000000000000e-01

2.550000000000000044e-01

2.550000000000000044e-01

1.975000000000000089e-01

8.000000000000000167e-02

7.000000000000000666e-02

1.100000000000000006e-01

1.700000000000000122e-01

2.449999999999999956e-01

2.675000000000000155e-01

2.550000000000000044e-01

2.449999999999999956e-01

2.575000000000000067e-01

2.625000000000000111e-01

2.399999999999999911e-01

1.975000000000000089e-01

1.325000000000000067e-01

2.999999999999999889e-02

-1.150000000000000050e-01

-2.374999999999999889e-01

-3.375000000000000222e-01

-4.074999999999999734e-01

-4.724999999999999756e-01

-5.374999999999999778e-01

-5.999999999999999778e-01

-6.474999999999999645e-01

-7.099999999999999645e-01

-8.000000000000000444e-01

-9.324999999999999956e-01

-1.090000000000000080e+00

-1.270000000000000018e+00

-1.439999999999999947e+00

-1.574999999999999956e+00

-1.679999999999999938e+00

-1.737500000000000044e+00

-1.732499999999999929e+00

-1.655000000000000027e+00

-1.510000000000000009e+00

-1.304999999999999938e+00

-1.084999999999999964e+00

-8.675000000000000488e-01

-6.774999999999999911e-01

-5.174999999999999600e-01

-4.025000000000000244e-01

-3.449999999999999734e-01

-3.375000000000000222e-01

-3.549999999999999822e-01

-3.850000000000000089e-01

-3.900000000000000133e-01

-3.549999999999999822e-01

-2.849999999999999756e-01

-2.025000000000000133e-01

-9.750000000000000333e-02

2.999999999999999889e-02

1.325000000000000067e-01

2.049999999999999878e-01

2.675000000000000155e-01

3.325000000000000178e-01

4.199999999999999845e-01

5.374999999999999778e-01

6.774999999999999911e-01

8.175000000000000044e-01

9.549999999999999600e-01

1.084999999999999964e+00

1.217500000000000027e+00

1.357499999999999929e+00

1.479999999999999982e+00

1.580000000000000071e+00

1.649999999999999911e+00

1.692499999999999893e+00

1.715000000000000080e+00

1.732499999999999929e+00

1.742499999999999938e+00

1.745000000000000107e+00

1.742499999999999938e+00

1.737500000000000044e+00

1.725000000000000089e+00

1.719999999999999973e+00

1.709999999999999964e+00

1.709999999999999964e+00

1.709999999999999964e+00

1.709999999999999964e+00

1.715000000000000080e+00

1.727500000000000036e+00

1.737500000000000044e+00

1.737500000000000044e+00

1.732499999999999929e+00

1.719999999999999973e+00

1.697500000000000009e+00

1.672500000000000098e+00

1.649999999999999911e+00

1.632500000000000062e+00

1.610000000000000098e+00

1.592500000000000027e+00

1.574999999999999956e+00

1.562500000000000000e+00

1.550000000000000044e+00

1.517500000000000071e+00

1.475000000000000089e+00

1.435000000000000053e+00

1.412500000000000089e+00

1.387499999999999956e+00

1.370000000000000107e+00

1.352500000000000036e+00

1.340000000000000080e+00

1.330000000000000071e+00

1.324999999999999956e+00

1.304999999999999938e+00

1.272499999999999964e+00

1.237500000000000044e+00

1.199999999999999956e+00

1.165000000000000036e+00

1.129999999999999893e+00

1.097499999999999920e+00

1.062500000000000000e+00

1.037500000000000089e+00

1.014999999999999902e+00

1.002499999999999947e+00

9.899999999999999911e-01

9.799999999999999822e-01

9.625000000000000222e-01

9.324999999999999956e-01

8.924999999999999600e-01

8.675000000000000488e-01

8.399999999999999689e-01

8.225000000000000089e-01

7.974999999999999867e-01

7.800000000000000266e-01

7.624999999999999556e-01

7.449999999999999956e-01

7.299999999999999822e-01

7.175000000000000266e-01

6.999999999999999556e-01

6.774999999999999911e-01

6.424999999999999600e-01

6.075000000000000400e-01

5.825000000000000178e-01

5.600000000000000533e-01

5.350000000000000311e-01

4.949999999999999956e-01

4.724999999999999756e-01

4.500000000000000111e-01

4.375000000000000000e-01

4.324999999999999956e-01

4.324999999999999956e-01

4.299999999999999933e-01

4.249999999999999889e-01

4.149999999999999800e-01

3.975000000000000200e-01

3.724999999999999978e-01

3.449999999999999734e-01

3.250000000000000111e-01

3.074999999999999956e-01

2.899999999999999800e-01

2.750000000000000222e-01

2.750000000000000222e-01

2.675000000000000155e-01

2.550000000000000044e-01

2.449999999999999956e-01

2.374999999999999889e-01

2.374999999999999889e-01

2.449999999999999956e-01

2.449999999999999956e-01

2.449999999999999956e-01

2.500000000000000000e-01

2.575000000000000067e-01

2.675000000000000155e-01

2.675000000000000155e-01

2.625000000000000111e-01

2.725000000000000200e-01

2.800000000000000266e-01

2.899999999999999800e-01

2.899999999999999800e-01

2.800000000000000266e-01

2.675000000000000155e-01

2.550000000000000044e-01

2.449999999999999956e-01

2.449999999999999956e-01

2.374999999999999889e-01

2.325000000000000122e-01

2.099999999999999922e-01

1.975000000000000089e-01

1.925000000000000044e-01

2.025000000000000133e-01

2.200000000000000011e-01

2.399999999999999911e-01

2.500000000000000000e-01

2.550000000000000044e-01

2.575000000000000067e-01

2.575000000000000067e-01

2.575000000000000067e-01

2.550000000000000044e-01

2.449999999999999956e-01

2.399999999999999911e-01

2.399999999999999911e-01

2.374999999999999889e-01

2.325000000000000122e-01

2.225000000000000033e-01

2.225000000000000033e-01

2.149999999999999967e-01

2.025000000000000133e-01

1.975000000000000089e-01

1.925000000000000044e-01

1.925000000000000044e-01

1.975000000000000089e-01

2.025000000000000133e-01

2.099999999999999922e-01

2.149999999999999967e-01

2.049999999999999878e-01

1.749999999999999889e-01

1.449999999999999900e-01

1.499999999999999944e-01

1.749999999999999889e-01

1.925000000000000044e-01

1.150000000000000050e-01

9.750000000000000333e-02

1.325000000000000067e-01

1.749999999999999889e-01

2.374999999999999889e-01

2.675000000000000155e-01

2.575000000000000067e-01

2.449999999999999956e-01

2.550000000000000044e-01

2.625000000000000111e-01

2.399999999999999911e-01

1.925000000000000044e-01

1.325000000000000067e-01

4.750000000000000056e-02

-8.749999999999999445e-02

-2.225000000000000033e-01

-3.375000000000000222e-01

-4.149999999999999800e-01

-4.824999999999999845e-01

-5.524999999999999911e-01

-6.049999999999999822e-01

-6.574999999999999734e-01

-7.175000000000000266e-01

-8.100000000000000533e-01

-9.399999999999999467e-01

-1.107499999999999929e+00

-1.294999999999999929e+00

-1.497500000000000053e+00

-1.672500000000000098e+00

-1.807500000000000107e+00

-1.885000000000000009e+00

-1.889999999999999902e+00

-1.802499999999999991e+00

-1.649999999999999911e+00

-1.445000000000000062e+00

-1.217500000000000027e+00

-9.975000000000000533e-01

-8.100000000000000533e-01

-6.524999999999999689e-01

-5.300000000000000266e-01

-4.475000000000000089e-01

-4.025000000000000244e-01

-3.900000000000000133e-01

-3.950000000000000178e-01

-3.900000000000000133e-01

-3.549999999999999822e-01

-2.899999999999999800e-01

-2.275000000000000078e-01

-1.325000000000000067e-01

-2.999999999999999889e-02

8.749999999999999445e-02

1.749999999999999889e-01

2.575000000000000067e-01

3.325000000000000178e-01

3.950000000000000178e-01

4.724999999999999756e-01

5.699999999999999512e-01

6.824999999999999956e-01

8.149999999999999467e-01

9.625000000000000222e-01

1.112500000000000044e+00

1.242499999999999938e+00

1.347499999999999920e+00

1.429999999999999938e+00

1.482499999999999929e+00

1.522499999999999964e+00

1.557500000000000107e+00

1.574999999999999956e+00

1.567499999999999893e+00

1.550000000000000044e+00

1.534999999999999920e+00

1.532499999999999973e+00

1.540000000000000036e+00

1.557500000000000107e+00

1.574999999999999956e+00

1.592500000000000027e+00

1.604999999999999982e+00

1.620000000000000107e+00

1.620000000000000107e+00

1.610000000000000098e+00

1.597499999999999920e+00

1.574999999999999956e+00

1.562500000000000000e+00

1.550000000000000044e+00

1.534999999999999920e+00

1.514999999999999902e+00

1.482499999999999929e+00

1.452499999999999902e+00

1.427499999999999991e+00

1.409999999999999920e+00

1.405000000000000027e+00

1.399999999999999911e+00

1.399999999999999911e+00

1.392500000000000071e+00

1.375000000000000000e+00

1.347499999999999920e+00

1.317499999999999893e+00

1.290000000000000036e+00

1.254999999999999893e+00

1.219999999999999973e+00

1.189999999999999947e+00

1.167499999999999982e+00

1.137499999999999956e+00

1.114999999999999991e+00

1.077499999999999902e+00

1.037500000000000089e+00

1.007500000000000062e+00

9.849999999999999867e-01

9.725000000000000311e-01

9.625000000000000222e-01

9.549999999999999600e-01

9.375000000000000000e-01

8.924999999999999600e-01

8.499999999999999778e-01

8.050000000000000488e-01

7.700000000000000178e-01

7.449999999999999956e-01

7.175000000000000266e-01

6.949999999999999512e-01

6.750000000000000444e-01

6.424999999999999600e-01

6.049999999999999822e-01

5.699999999999999512e-01

5.350000000000000311e-01

5.250000000000000222e-01

5.200000000000000178e-01

5.174999999999999600e-01

4.899999999999999911e-01

4.475000000000000089e-01

4.025000000000000244e-01

3.775000000000000022e-01

3.674999999999999933e-01

3.599999999999999867e-01

3.425000000000000266e-01

3.024999999999999911e-01

2.625000000000000111e-01

2.399999999999999911e-01

2.149999999999999967e-01

1.975000000000000089e-01

1.799999999999999933e-01

1.700000000000000122e-01

1.700000000000000122e-01

1.575000000000000011e-01

1.350000000000000089e-01

1.000000000000000056e-01

7.000000000000000666e-02

4.499999999999999833e-02

2.750000000000000014e-02

1.750000000000000167e-02

2.999999999999999889e-02

5.249999999999999806e-02

7.499999999999999722e-02

8.250000000000000389e-02

8.000000000000000167e-02

6.500000000000000222e-02

5.249999999999999806e-02

2.999999999999999889e-02

5.000000000000000104e-03

-3.500000000000000333e-02

-4.499999999999999833e-02

-5.249999999999999806e-02

-4.499999999999999833e-02

-2.249999999999999917e-02

1.250000000000000069e-02

2.750000000000000014e-02

2.750000000000000014e-02

2.999999999999999889e-02

4.499999999999999833e-02

5.249999999999999806e-02

5.750000000000000250e-02

5.750000000000000250e-02

4.750000000000000056e-02

3.500000000000000333e-02

2.999999999999999889e-02

2.999999999999999889e-02

4.000000000000000083e-02

4.499999999999999833e-02

2.999999999999999889e-02

1.000000000000000021e-02

-1.750000000000000167e-02

0.000000000000000000e+00

1.000000000000000021e-02

2.999999999999999889e-02

2.999999999999999889e-02

2.750000000000000014e-02

2.249999999999999917e-02

1.750000000000000167e-02

1.250000000000000069e-02

2.249999999999999917e-02

1.750000000000000167e-02

1.000000000000000021e-02

0.000000000000000000e+00

-2.750000000000000014e-02

-2.750000000000000014e-02

1.000000000000000021e-02

2.999999999999999889e-02

4.499999999999999833e-02

4.000000000000000083e-02

3.500000000000000333e-02

2.999999999999999889e-02

1.250000000000000069e-02

0.000000000000000000e+00

-2.249999999999999917e-02

-2.249999999999999917e-02

0.000000000000000000e+00

2.750000000000000014e-02

4.750000000000000056e-02

6.250000000000000000e-02

6.500000000000000222e-02

4.750000000000000056e-02

-7.000000000000000666e-02

-8.000000000000000167e-02

1.250000000000000069e-02

1.174999999999999933e-01

2.149999999999999967e-01

2.725000000000000200e-01

2.675000000000000155e-01

2.500000000000000000e-01

2.575000000000000067e-01

2.675000000000000155e-01

2.550000000000000044e-01

2.049999999999999878e-01

1.400000000000000133e-01

4.000000000000000083e-02

-1.224999999999999978e-01

-2.750000000000000222e-01

-3.900000000000000133e-01

-4.550000000000000155e-01

-4.899999999999999911e-01

-5.200000000000000178e-01

-5.524999999999999911e-01

-5.949999999999999734e-01

-6.474999999999999645e-01

-7.349999999999999867e-01

-8.525000000000000355e-01

-9.975000000000000533e-01

-1.165000000000000036e+00

-1.334999999999999964e+00

-1.479999999999999982e+00

-1.602500000000000036e+00

-1.692499999999999893e+00

-1.732499999999999929e+00

-1.702499999999999902e+00

-1.614999999999999991e+00

-1.457500000000000018e+00

-1.242499999999999938e+00

-1.020000000000000018e+00

-7.974999999999999867e-01

-6.175000000000000488e-01

-4.949999999999999956e-01

-4.299999999999999933e-01

-4.025000000000000244e-01

-4.074999999999999734e-01

-4.375000000000000000e-01

-4.899999999999999911e-01

-5.074999999999999512e-01

-4.650000000000000244e-01

-3.850000000000000089e-01

-2.725000000000000200e-01

-1.400000000000000133e-01

1.250000000000000069e-02

1.350000000000000089e-01

2.374999999999999889e-01

3.250000000000000111e-01

4.025000000000000244e-01

4.849999999999999867e-01

5.875000000000000222e-01

6.925000000000000044e-01

7.974999999999999867e-01

9.100000000000000311e-01

1.024999999999999911e+00

1.142500000000000071e+00

1.254999999999999893e+00

1.347499999999999920e+00

1.417499999999999982e+00

1.462499999999999911e+00

1.497500000000000053e+00

1.514999999999999902e+00

1.522499999999999964e+00

1.532499999999999973e+00

1.540000000000000036e+00

1.544999999999999929e+00

1.544999999999999929e+00

1.540000000000000036e+00

1.540000000000000036e+00

1.540000000000000036e+00

1.540000000000000036e+00

1.527500000000000080e+00

1.522499999999999964e+00

1.527500000000000080e+00

1.540000000000000036e+00

1.552499999999999991e+00

1.557500000000000107e+00

1.544999999999999929e+00

1.532499999999999973e+00

1.527500000000000080e+00

1.532499999999999973e+00

1.532499999999999973e+00

1.522499999999999964e+00

1.504999999999999893e+00

1.482499999999999929e+00

1.452499999999999902e+00

1.429999999999999938e+00

1.405000000000000027e+00

1.382500000000000062e+00

1.360000000000000098e+00

1.342500000000000027e+00

1.330000000000000071e+00

1.322500000000000009e+00

1.307500000000000107e+00

1.287500000000000089e+00

1.247500000000000053e+00

1.199999999999999956e+00

1.165000000000000036e+00

1.147499999999999964e+00

1.137499999999999956e+00

1.137499999999999956e+00

1.125000000000000000e+00

1.107499999999999929e+00

1.084999999999999964e+00

1.062500000000000000e+00

1.044999999999999929e+00

1.027500000000000080e+00

1.007500000000000062e+00

9.725000000000000311e-01

9.324999999999999956e-01

9.050000000000000266e-01

8.874999999999999556e-01

8.699999999999999956e-01

8.399999999999999689e-01

8.100000000000000533e-01

7.824999999999999734e-01

7.700000000000000178e-01

7.650000000000000133e-01

7.624999999999999556e-01

7.399999999999999911e-01

7.125000000000000222e-01

6.700000000000000400e-01

6.350000000000000089e-01

6.075000000000000400e-01

5.875000000000000222e-01

5.725000000000000089e-01

5.649999999999999467e-01

5.524999999999999911e-01

5.350000000000000311e-01

5.124999999999999556e-01

4.824999999999999845e-01

4.475000000000000089e-01

4.149999999999999800e-01

4.025000000000000244e-01

4.025000000000000244e-01

3.975000000000000200e-01

3.900000000000000133e-01

3.800000000000000044e-01

3.624999999999999889e-01

3.375000000000000222e-01

3.099999999999999978e-01

2.924999999999999822e-01

2.800000000000000266e-01

2.750000000000000222e-01

2.550000000000000044e-01

2.275000000000000078e-01

2.149999999999999967e-01

2.225000000000000033e-01

2.374999999999999889e-01

2.500000000000000000e-01

2.625000000000000111e-01

2.675000000000000155e-01

2.625000000000000111e-01

2.550000000000000044e-01

2.374999999999999889e-01

2.149999999999999967e-01

2.099999999999999922e-01

2.200000000000000011e-01

2.374999999999999889e-01

2.575000000000000067e-01

2.750000000000000222e-01

2.899999999999999800e-01

2.899999999999999800e-01

2.750000000000000222e-01

2.625000000000000111e-01

2.550000000000000044e-01

2.449999999999999956e-01

2.374999999999999889e-01

2.374999999999999889e-01

2.374999999999999889e-01

2.449999999999999956e-01

2.625000000000000111e-01

2.899999999999999800e-01

3.024999999999999911e-01

3.074999999999999956e-01

3.074999999999999956e-01

3.024999999999999911e-01

2.849999999999999756e-01

2.750000000000000222e-01

2.800000000000000266e-01

3.074999999999999956e-01

3.325000000000000178e-01

3.549999999999999822e-01

3.599999999999999867e-01

3.599999999999999867e-01

3.549999999999999822e-01

3.499999999999999778e-01

3.499999999999999778e-01

3.425000000000000266e-01

3.425000000000000266e-01

3.499999999999999778e-01

3.674999999999999933e-01

3.775000000000000022e-01

3.775000000000000022e-01

3.624999999999999889e-01

3.499999999999999778e-01

3.375000000000000222e-01

3.375000000000000222e-01

3.375000000000000222e-01

3.375000000000000222e-01

3.250000000000000111e-01

3.074999999999999956e-01

2.800000000000000266e-01

2.725000000000000200e-01

1.875000000000000000e-01

1.049999999999999961e-01

1.150000000000000050e-01

1.575000000000000011e-01

2.099999999999999922e-01

2.500000000000000000e-01

2.625000000000000111e-01

2.500000000000000000e-01

2.550000000000000044e-01

2.625000000000000111e-01

2.575000000000000067e-01

2.225000000000000033e-01

1.799999999999999933e-01

1.100000000000000006e-01

5.000000000000000104e-03

-1.575000000000000011e-01

-2.974999999999999867e-01

-4.074999999999999734e-01

-4.899999999999999911e-01

-5.600000000000000533e-01

-6.175000000000000488e-01

-6.750000000000000444e-01

-7.275000000000000355e-01

-7.974999999999999867e-01

-9.024999999999999689e-01

-1.042499999999999982e+00

-1.229999999999999982e+00

-1.429999999999999938e+00

-1.614999999999999991e+00

-1.727500000000000036e+00

-1.802499999999999991e+00

-1.814999999999999947e+00

-1.767500000000000071e+00

-1.649999999999999911e+00

-1.465000000000000080e+00

-1.270000000000000018e+00

-1.080000000000000071e+00

-9.100000000000000311e-01

-7.650000000000000133e-01

-6.400000000000000133e-01

-5.424999999999999822e-01

-4.824999999999999845e-01

-4.650000000000000244e-01

-4.650000000000000244e-01

-4.724999999999999756e-01

-4.774999999999999800e-01

-4.475000000000000089e-01

-3.900000000000000133e-01

-3.150000000000000022e-01

-2.200000000000000011e-01

-1.100000000000000006e-01

0.000000000000000000e+00

7.000000000000000666e-02

1.499999999999999944e-01

2.149999999999999967e-01

2.924999999999999822e-01

4.025000000000000244e-01

5.350000000000000311e-01

6.824999999999999956e-01

8.349999999999999645e-01

9.899999999999999911e-01

1.120000000000000107e+00

1.242499999999999938e+00

1.334999999999999964e+00

1.399999999999999911e+00

1.429999999999999938e+00

1.452499999999999902e+00

1.462499999999999911e+00

1.475000000000000089e+00

1.487500000000000044e+00

1.504999999999999893e+00

1.522499999999999964e+00

1.540000000000000036e+00

1.550000000000000044e+00

1.552499999999999991e+00

1.552499999999999991e+00

1.544999999999999929e+00

1.532499999999999973e+00

1.522499999999999964e+00

1.527500000000000080e+00

1.532499999999999973e+00

1.534999999999999920e+00

1.534999999999999920e+00

1.532499999999999973e+00

1.517500000000000071e+00

1.510000000000000009e+00

1.479999999999999982e+00

1.445000000000000062e+00

1.422500000000000098e+00

1.422500000000000098e+00

1.417499999999999982e+00

1.412500000000000089e+00

1.405000000000000027e+00

1.405000000000000027e+00

1.399999999999999911e+00

1.399999999999999911e+00

1.395000000000000018e+00

1.382500000000000062e+00

1.364999999999999991e+00

1.347499999999999920e+00

1.322500000000000009e+00

1.277500000000000080e+00

1.242499999999999938e+00

1.199999999999999956e+00

1.155000000000000027e+00

1.114999999999999991e+00

1.084999999999999964e+00

1.054999999999999938e+00

1.024999999999999911e+00

9.975000000000000533e-01

9.849999999999999867e-01

9.799999999999999822e-01

9.675000000000000266e-01

9.399999999999999467e-01

9.050000000000000266e-01

8.499999999999999778e-01

8.000000000000000444e-01

7.700000000000000178e-01

7.650000000000000133e-01

7.700000000000000178e-01

7.800000000000000266e-01

7.624999999999999556e-01

7.225000000000000311e-01

6.774999999999999911e-01

6.424999999999999600e-01

6.125000000000000444e-01

5.875000000000000222e-01

5.649999999999999467e-01

5.424999999999999822e-01

5.250000000000000222e-01

5.000000000000000000e-01

4.724999999999999756e-01

4.550000000000000155e-01

4.425000000000000044e-01

4.299999999999999933e-01

4.249999999999999889e-01

4.074999999999999734e-01

3.775000000000000022e-01

3.325000000000000178e-01

2.924999999999999822e-01

2.625000000000000111e-01

2.275000000000000078e-01

2.149999999999999967e-01

2.275000000000000078e-01

2.550000000000000044e-01

2.800000000000000266e-01

2.974999999999999867e-01

2.974999999999999867e-01

2.800000000000000266e-01

2.725000000000000200e-01

2.449999999999999956e-01

2.025000000000000133e-01

1.625000000000000056e-01

1.350000000000000089e-01

1.350000000000000089e-01

1.499999999999999944e-01

1.799999999999999933e-01

2.149999999999999967e-01

2.399999999999999911e-01

2.449999999999999956e-01

2.325000000000000122e-01

2.025000000000000133e-01

1.749999999999999889e-01

1.749999999999999889e-01

1.849999999999999978e-01

1.925000000000000044e-01

2.025000000000000133e-01

2.149999999999999967e-01

2.399999999999999911e-01

2.550000000000000044e-01

2.625000000000000111e-01

2.575000000000000067e-01

2.550000000000000044e-01

2.550000000000000044e-01

2.449999999999999956e-01

2.374999999999999889e-01

2.225000000000000033e-01

2.099999999999999922e-01

2.025000000000000133e-01

1.975000000000000089e-01

1.925000000000000044e-01

1.925000000000000044e-01

1.875000000000000000e-01

1.875000000000000000e-01

1.925000000000000044e-01

2.149999999999999967e-01

2.200000000000000011e-01

2.200000000000000011e-01

2.025000000000000133e-01

1.875000000000000000e-01

1.849999999999999978e-01

1.925000000000000044e-01

2.025000000000000133e-01

2.225000000000000033e-01

2.374999999999999889e-01

2.449999999999999956e-01

2.449999999999999956e-01

2.325000000000000122e-01

2.049999999999999878e-01

1.849999999999999978e-01

1.749999999999999889e-01

1.799999999999999933e-01

1.925000000000000044e-01

2.025000000000000133e-01

2.025000000000000133e-01

1.925000000000000044e-01

1.925000000000000044e-01

1.849999999999999978e-01

1.749999999999999889e-01

1.575000000000000011e-01

7.499999999999999722e-02

-2.750000000000000014e-02

2.750000000000000014e-02

9.750000000000000333e-02

1.849999999999999978e-01

2.500000000000000000e-01

2.725000000000000200e-01

2.550000000000000044e-01

2.550000000000000044e-01

2.625000000000000111e-01

2.625000000000000111e-01

2.275000000000000078e-01

1.749999999999999889e-01

8.250000000000000389e-02

-6.500000000000000222e-02

-2.275000000000000078e-01

-3.724999999999999978e-01

-4.675000000000000266e-01

-5.300000000000000266e-01

-5.775000000000000133e-01

-6.250000000000000000e-01

-6.650000000000000355e-01

-7.049999999999999600e-01

-7.650000000000000133e-01

-8.675000000000000488e-01

-9.975000000000000533e-01

-1.167499999999999982e+00

-1.364999999999999991e+00

-1.550000000000000044e+00

-1.707500000000000018e+00

-1.824999999999999956e+00

-1.882500000000000062e+00

-1.864999999999999991e+00

-1.767500000000000071e+00

-1.604999999999999982e+00

-1.395000000000000018e+00

-1.172500000000000098e+00

-9.625000000000000222e-01

-7.800000000000000266e-01

-6.300000000000000044e-01

-5.350000000000000311e-01

-5.024999999999999467e-01

-5.250000000000000222e-01

-5.699999999999999512e-01

-6.125000000000000444e-01

-6.300000000000000044e-01

-5.875000000000000222e-01

-5.124999999999999556e-01

-4.324999999999999956e-01

-3.549999999999999822e-01

-2.449999999999999956e-01

-1.275000000000000022e-01

0.000000000000000000e+00

1.049999999999999961e-01

2.099999999999999922e-01

2.924999999999999822e-01

3.850000000000000089e-01

4.899999999999999911e-01

6.125000000000000444e-01

7.349999999999999867e-01

8.699999999999999956e-01

1.014999999999999902e+00

1.147499999999999964e+00

1.260000000000000009e+00

1.357499999999999929e+00

1.422500000000000098e+00

1.469999999999999973e+00

1.504999999999999893e+00

1.510000000000000009e+00

1.497500000000000053e+00

1.465000000000000080e+00

1.439999999999999947e+00

1.435000000000000053e+00

1.429999999999999938e+00

1.429999999999999938e+00

1.427499999999999991e+00

1.427499999999999991e+00

1.429999999999999938e+00

1.439999999999999947e+00

1.452499999999999902e+00

1.465000000000000080e+00

1.482499999999999929e+00

1.497500000000000053e+00

1.504999999999999893e+00

1.487500000000000044e+00

1.465000000000000080e+00

1.445000000000000062e+00

1.429999999999999938e+00

1.417499999999999982e+00

1.392500000000000071e+00

1.342500000000000027e+00

1.304999999999999938e+00

1.287500000000000089e+00

1.294999999999999929e+00

1.322500000000000009e+00

1.330000000000000071e+00

1.312500000000000000e+00

1.272499999999999964e+00

1.235000000000000098e+00

1.202499999999999902e+00

1.185000000000000053e+00

1.167499999999999982e+00

1.149999999999999911e+00

1.125000000000000000e+00

1.112500000000000044e+00

1.084999999999999964e+00

1.067499999999999893e+00

1.037500000000000089e+00

1.007500000000000062e+00

9.675000000000000266e-01

9.399999999999999467e-01

9.100000000000000311e-01

8.850000000000000089e-01

8.399999999999999689e-01

8.000000000000000444e-01

7.624999999999999556e-01

7.275000000000000355e-01

7.049999999999999600e-01

6.999999999999999556e-01

6.925000000000000044e-01

6.824999999999999956e-01

6.750000000000000444e-01

6.600000000000000311e-01

6.474999999999999645e-01

6.250000000000000000e-01

5.899999999999999689e-01

5.474999999999999867e-01

5.074999999999999512e-01

4.824999999999999845e-01

4.650000000000000244e-01

4.425000000000000044e-01

4.249999999999999889e-01

3.975000000000000200e-01

3.800000000000000044e-01

3.599999999999999867e-01

3.449999999999999734e-01

3.375000000000000222e-01

3.275000000000000133e-01

3.074999999999999956e-01

2.899999999999999800e-01

2.625000000000000111e-01

2.399999999999999911e-01

2.200000000000000011e-01

2.225000000000000033e-01

2.325000000000000122e-01

2.374999999999999889e-01

2.374999999999999889e-01

2.200000000000000011e-01

2.025000000000000133e-01

1.799999999999999933e-01

1.625000000000000056e-01

1.524999999999999967e-01

1.625000000000000056e-01

1.700000000000000122e-01

1.975000000000000089e-01

2.049999999999999878e-01

1.975000000000000089e-01

1.625000000000000056e-01

1.150000000000000050e-01

6.250000000000000000e-02

4.499999999999999833e-02

6.250000000000000000e-02

1.000000000000000056e-01

1.449999999999999900e-01

1.799999999999999933e-01

1.925000000000000044e-01

1.875000000000000000e-01

1.799999999999999933e-01

1.625000000000000056e-01

1.400000000000000133e-01

1.275000000000000022e-01

1.275000000000000022e-01

1.325000000000000067e-01

1.325000000000000067e-01

1.350000000000000089e-01

1.524999999999999967e-01

1.575000000000000011e-01

1.524999999999999967e-01

1.325000000000000067e-01

1.224999999999999978e-01

1.150000000000000050e-01

1.174999999999999933e-01

1.224999999999999978e-01

1.350000000000000089e-01

1.449999999999999900e-01

1.449999999999999900e-01

1.449999999999999900e-01

1.499999999999999944e-01

1.524999999999999967e-01

1.749999999999999889e-01

1.975000000000000089e-01

2.025000000000000133e-01

1.925000000000000044e-01

1.925000000000000044e-01

2.025000000000000133e-01

2.200000000000000011e-01

2.374999999999999889e-01

2.374999999999999889e-01

2.225000000000000033e-01

2.149999999999999967e-01

2.200000000000000011e-01

2.275000000000000078e-01

2.225000000000000033e-01

2.025000000000000133e-01

1.799999999999999933e-01

1.675000000000000100e-01

1.675000000000000100e-01

1.700000000000000122e-01

1.849999999999999978e-01

1.925000000000000044e-01

1.675000000000000100e-01

7.000000000000000666e-02

7.499999999999999722e-02

1.174999999999999933e-01

1.849999999999999978e-01

2.449999999999999956e-01

2.675000000000000155e-01

2.550000000000000044e-01

2.500000000000000000e-01

2.575000000000000067e-01

2.625000000000000111e-01

2.325000000000000122e-01

1.749999999999999889e-01

9.249999999999999889e-02

-4.000000000000000083e-02

-1.799999999999999933e-01

-3.250000000000000111e-01

-4.249999999999999889e-01

-4.949999999999999956e-01

-5.424999999999999822e-01

-5.949999999999999734e-01

-6.225000000000000533e-01

-6.400000000000000133e-01

-6.650000000000000355e-01

-7.349999999999999867e-01

-8.499999999999999778e-01

-1.002499999999999947e+00

-1.165000000000000036e+00

-1.322500000000000009e+00

-1.447500000000000009e+00

-1.544999999999999929e+00

-1.610000000000000098e+00

-1.637499999999999956e+00

-1.610000000000000098e+00

-1.504999999999999893e+00

-1.322500000000000009e+00

-1.090000000000000080e+00

-8.575000000000000400e-01

-6.700000000000000400e-01

-5.424999999999999822e-01

-4.475000000000000089e-01

-3.850000000000000089e-01

-3.674999999999999933e-01

-3.900000000000000133e-01

-4.249999999999999889e-01

-4.550000000000000155e-01

-4.475000000000000089e-01

-3.950000000000000178e-01

-3.200000000000000067e-01

-2.275000000000000078e-01

-1.224999999999999978e-01

0.000000000000000000e+00

1.049999999999999961e-01

1.975000000000000089e-01

2.849999999999999756e-01

3.674999999999999933e-01

4.650000000000000244e-01

5.875000000000000222e-01

7.175000000000000266e-01

8.499999999999999778e-01

9.749999999999999778e-01

1.097499999999999920e+00

1.207500000000000018e+00

1.324999999999999956e+00

1.435000000000000053e+00

1.522499999999999964e+00

1.567499999999999893e+00

1.584999999999999964e+00

1.587499999999999911e+00

1.592500000000000027e+00

1.610000000000000098e+00

1.645000000000000018e+00

1.667499999999999982e+00

1.685000000000000053e+00

1.692499999999999893e+00

1.679999999999999938e+00

1.649999999999999911e+00

1.622500000000000053e+00

1.592500000000000027e+00

1.580000000000000071e+00

1.570000000000000062e+00

1.557500000000000107e+00

1.540000000000000036e+00

1.532499999999999973e+00

1.527500000000000080e+00

1.532499999999999973e+00

1.544999999999999929e+00

1.552499999999999991e+00

1.552499999999999991e+00

1.517500000000000071e+00

1.479999999999999982e+00

1.439999999999999947e+00

1.409999999999999920e+00

1.395000000000000018e+00

1.387499999999999956e+00

1.387499999999999956e+00

1.395000000000000018e+00

1.405000000000000027e+00

1.405000000000000027e+00

1.375000000000000000e+00

1.330000000000000071e+00

1.307500000000000107e+00

1.312500000000000000e+00

1.317499999999999893e+00

1.307500000000000107e+00

1.264999999999999902e+00

1.195000000000000062e+00

1.137499999999999956e+00

1.094999999999999973e+00

1.062500000000000000e+00

1.032499999999999973e+00

1.014999999999999902e+00

9.925000000000000488e-01

9.499999999999999556e-01

9.100000000000000311e-01

8.699999999999999956e-01

8.525000000000000355e-01

8.399999999999999689e-01

8.225000000000000089e-01

8.149999999999999467e-01

8.175000000000000044e-01

8.050000000000000488e-01

7.800000000000000266e-01

7.524999999999999467e-01

7.349999999999999867e-01

7.225000000000000311e-01

6.949999999999999512e-01

6.524999999999999689e-01

5.949999999999999734e-01

5.524999999999999911e-01

5.350000000000000311e-01

5.300000000000000266e-01

5.250000000000000222e-01

5.200000000000000178e-01

5.124999999999999556e-01

4.949999999999999956e-01

4.849999999999999867e-01

4.650000000000000244e-01

4.375000000000000000e-01

4.124999999999999778e-01

4.025000000000000244e-01

4.124999999999999778e-01

4.425000000000000044e-01

4.774999999999999800e-01

4.824999999999999845e-01

4.375000000000000000e-01

3.900000000000000133e-01

3.425000000000000266e-01

3.024999999999999911e-01

2.725000000000000200e-01

2.374999999999999889e-01

2.099999999999999922e-01

2.025000000000000133e-01

2.325000000000000122e-01

2.849999999999999756e-01

3.200000000000000067e-01

3.150000000000000022e-01

2.849999999999999756e-01

2.399999999999999911e-01

1.925000000000000044e-01

1.799999999999999933e-01

1.925000000000000044e-01

2.099999999999999922e-01

2.374999999999999889e-01

2.399999999999999911e-01

2.550000000000000044e-01

2.500000000000000000e-01

2.374999999999999889e-01

2.225000000000000033e-01

2.200000000000000011e-01

2.275000000000000078e-01

2.399999999999999911e-01

2.675000000000000155e-01

2.849999999999999756e-01

2.899999999999999800e-01

2.750000000000000222e-01

2.449999999999999956e-01

2.225000000000000033e-01

2.049999999999999878e-01

2.099999999999999922e-01

2.325000000000000122e-01

2.500000000000000000e-01

2.625000000000000111e-01

2.725000000000000200e-01

2.750000000000000222e-01

2.750000000000000222e-01

2.800000000000000266e-01

2.849999999999999756e-01

2.924999999999999822e-01

2.899999999999999800e-01

2.800000000000000266e-01

2.800000000000000266e-01

2.899999999999999800e-01

2.899999999999999800e-01

2.849999999999999756e-01

2.625000000000000111e-01

2.399999999999999911e-01

2.225000000000000033e-01

2.275000000000000078e-01

2.374999999999999889e-01

2.500000000000000000e-01

2.625000000000000111e-01

2.725000000000000200e-01

2.625000000000000111e-01

2.550000000000000044e-01

2.575000000000000067e-01

2.625000000000000111e-01

2.725000000000000200e-01

2.750000000000000222e-01

2.800000000000000266e-01

2.449999999999999956e-01

1.224999999999999978e-01

8.250000000000000389e-02

1.049999999999999961e-01

1.524999999999999967e-01

2.275000000000000078e-01

2.725000000000000200e-01

2.625000000000000111e-01

2.449999999999999956e-01

2.575000000000000067e-01

2.675000000000000155e-01

2.500000000000000000e-01

2.049999999999999878e-01

1.499999999999999944e-01

4.499999999999999833e-02

-1.325000000000000067e-01

-2.974999999999999867e-01

-4.299999999999999933e-01

-4.949999999999999956e-01

-5.174999999999999600e-01

-5.300000000000000266e-01

-5.474999999999999867e-01

-5.825000000000000178e-01

-6.400000000000000133e-01

-7.399999999999999911e-01

-8.800000000000000044e-01

-1.032499999999999973e+00

-1.199999999999999956e+00

-1.364999999999999991e+00

-1.517500000000000071e+00

-1.655000000000000027e+00

-1.754999999999999893e+00

-1.772499999999999964e+00

-1.715000000000000080e+00

-1.567499999999999893e+00

-1.377499999999999947e+00

-1.182500000000000107e+00

-9.925000000000000488e-01

-8.175000000000000044e-01

-6.700000000000000400e-01

-5.550000000000000488e-01

-4.849999999999999867e-01

-4.675000000000000266e-01

-5.024999999999999467e-01

-5.649999999999999467e-01

-6.175000000000000488e-01

-6.350000000000000089e-01

-5.949999999999999734e-01

-5.124999999999999556e-01

-3.850000000000000089e-01

-2.374999999999999889e-01

-9.249999999999999889e-02

3.500000000000000333e-02

1.325000000000000067e-01

2.099999999999999922e-01

2.899999999999999800e-01

3.775000000000000022e-01

5.000000000000000000e-01

6.400000000000000133e-01

7.924999999999999822e-01

9.399999999999999467e-01

1.077499999999999902e+00

1.185000000000000053e+00

1.294999999999999929e+00

1.382500000000000062e+00

1.435000000000000053e+00

1.465000000000000080e+00

1.497500000000000053e+00

1.532499999999999973e+00

1.557500000000000107e+00

1.570000000000000062e+00

1.584999999999999964e+00

1.597499999999999920e+00

1.592500000000000027e+00

1.570000000000000062e+00

1.540000000000000036e+00

1.514999999999999902e+00

1.504999999999999893e+00

1.527500000000000080e+00

1.562500000000000000e+00

1.587499999999999911e+00

1.604999999999999982e+00

1.622500000000000053e+00

1.632500000000000062e+00

1.637499999999999956e+00

1.620000000000000107e+00

1.587499999999999911e+00

1.540000000000000036e+00

1.500000000000000000e+00

1.465000000000000080e+00

1.435000000000000053e+00

1.409999999999999920e+00

1.387499999999999956e+00

1.364999999999999991e+00

1.352500000000000036e+00

1.340000000000000080e+00

1.324999999999999956e+00

1.304999999999999938e+00

1.282499999999999973e+00

1.254999999999999893e+00

1.219999999999999973e+00

1.185000000000000053e+00

1.137499999999999956e+00

1.107499999999999929e+00

1.094999999999999973e+00

1.097499999999999920e+00

1.114999999999999991e+00

1.112500000000000044e+00

1.084999999999999964e+00

1.050000000000000044e+00

1.010000000000000009e+00

9.849999999999999867e-01

9.575000000000000178e-01

9.375000000000000000e-01

9.024999999999999689e-01

8.675000000000000488e-01

8.000000000000000444e-01

7.049999999999999600e-01

5.899999999999999689e-01

4.824999999999999845e-01

3.800000000000000044e-01

2.800000000000000266e-01

2.099999999999999922e-01

1.625000000000000056e-01

1.524999999999999967e-01

1.524999999999999967e-01

1.325000000000000067e-01

2.999999999999999889e-02

-1.749999999999999889e-01

-4.149999999999999800e-01

-6.474999999999999645e-01

-8.449999999999999734e-01

-1.037500000000000089e+00

-1.270000000000000018e+00

-1.504999999999999893e+00

-1.885000000000000009e+00

-2.222500000000000142e+00

-2.337499999999999911e+00

-2.327500000000000124e+00

-2.240000000000000213e+00

-2.134999999999999787e+00

-2.197499999999999787e+00

-2.285000000000000142e+00

-2.214999999999999858e+00

-2.332500000000000018e+00

-2.774999999999999911e+00

-2.770000000000000018e+00

-2.502499999999999947e+00

-1.929999999999999938e+00

-1.202499999999999902e+00

-6.700000000000000400e-01

-3.975000000000000200e-01

-2.200000000000000011e-01

1.000000000000000021e-02

1.849999999999999978e-01

2.449999999999999956e-01

3.200000000000000067e-01

4.899999999999999911e-01

6.774999999999999911e-01

8.050000000000000488e-01

8.924999999999999600e-01

1.002499999999999947e+00

1.114999999999999991e+00

1.195000000000000062e+00

1.235000000000000098e+00

1.277500000000000080e+00

1.322500000000000009e+00

1.352500000000000036e+00

1.370000000000000107e+00

1.392500000000000071e+00

1.409999999999999920e+00

1.399999999999999911e+00

1.382500000000000062e+00

1.375000000000000000e+00

1.392500000000000071e+00

1.409999999999999920e+00

1.417499999999999982e+00

1.435000000000000053e+00

1.452499999999999902e+00

1.447500000000000009e+00

1.439999999999999947e+00

1.452499999999999902e+00

1.479999999999999982e+00

1.492499999999999938e+00

1.482499999999999929e+00

1.462499999999999911e+00

1.435000000000000053e+00

1.392500000000000071e+00

1.357499999999999929e+00

1.322500000000000009e+00

1.300000000000000044e+00

1.312500000000000000e+00

1.330000000000000071e+00

1.342500000000000027e+00

1.342500000000000027e+00

1.340000000000000080e+00

1.330000000000000071e+00

1.294999999999999929e+00

1.242499999999999938e+00

1.182500000000000107e+00

1.142500000000000071e+00

1.129999999999999893e+00

1.120000000000000107e+00

1.090000000000000080e+00

1.024999999999999911e+00

9.549999999999999600e-01

8.974999999999999645e-01

8.625000000000000444e-01

8.449999999999999734e-01

8.325000000000000178e-01

7.974999999999999867e-01

6.300000000000000044e-01

4.324999999999999956e-01

3.074999999999999956e-01

2.275000000000000078e-01

2.149999999999999967e-01

2.399999999999999911e-01

2.399999999999999911e-01

2.275000000000000078e-01

2.374999999999999889e-01

2.550000000000000044e-01

2.550000000000000044e-01

1.925000000000000044e-01

8.250000000000000389e-02

-9.249999999999999889e-02

-2.849999999999999756e-01

-4.824999999999999845e-01

-6.350000000000000089e-01

-7.225000000000000311e-01

-7.924999999999999822e-01

-8.525000000000000355e-01

-8.924999999999999600e-01

-9.100000000000000311e-01

-9.274999999999999911e-01

-9.675000000000000266e-01

-1.050000000000000044e+00

-1.167499999999999982e+00

-1.330000000000000071e+00

-1.514999999999999902e+00

-1.707500000000000018e+00

-1.860000000000000098e+00

-1.955000000000000071e+00

-1.965000000000000080e+00

-1.899999999999999911e+00

-1.772499999999999964e+00

-1.610000000000000098e+00

-1.435000000000000053e+00

-1.260000000000000009e+00

-1.084999999999999964e+00

-9.100000000000000311e-01

-7.524999999999999467e-01

-6.400000000000000133e-01

-5.899999999999999689e-01

-5.949999999999999734e-01

-6.300000000000000044e-01

-6.700000000000000400e-01

-6.925000000000000044e-01

-6.750000000000000444e-01

-6.300000000000000044e-01

-5.350000000000000311e-01

-4.149999999999999800e-01

-2.750000000000000222e-01

-1.449999999999999900e-01

-2.999999999999999889e-02

7.499999999999999722e-02

1.400000000000000133e-01

2.025000000000000133e-01

2.849999999999999756e-01

4.025000000000000244e-01

5.474999999999999867e-01

6.999999999999999556e-01

8.449999999999999734e-01

9.899999999999999911e-01

1.125000000000000000e+00

1.254999999999999893e+00

1.360000000000000098e+00

1.445000000000000062e+00

1.487500000000000044e+00

1.510000000000000009e+00

1.532499999999999973e+00

1.552499999999999991e+00

1.570000000000000062e+00

1.574999999999999956e+00

1.552499999999999991e+00

1.534999999999999920e+00

1.522499999999999964e+00

1.532499999999999973e+00

1.527500000000000080e+00

1.517500000000000071e+00

1.500000000000000000e+00

1.514999999999999902e+00

1.527500000000000080e+00

1.534999999999999920e+00

1.527500000000000080e+00

1.510000000000000009e+00

1.482499999999999929e+00

1.462499999999999911e+00

1.429999999999999938e+00

1.387499999999999956e+00

1.334999999999999964e+00

1.287500000000000089e+00

1.254999999999999893e+00

1.229999999999999982e+00

1.225000000000000089e+00

1.252499999999999947e+00

1.290000000000000036e+00

1.322500000000000009e+00

1.324999999999999956e+00

1.290000000000000036e+00

1.235000000000000098e+00

1.155000000000000027e+00

1.094999999999999973e+00

1.044999999999999929e+00

1.002499999999999947e+00

9.625000000000000222e-01

9.449999999999999512e-01

9.375000000000000000e-01

9.200000000000000400e-01

8.874999999999999556e-01

8.499999999999999778e-01

8.050000000000000488e-01

7.700000000000000178e-01

7.299999999999999822e-01

6.949999999999999512e-01

6.750000000000000444e-01

6.474999999999999645e-01

6.225000000000000533e-01

5.725000000000000089e-01

5.200000000000000178e-01

4.724999999999999756e-01

4.475000000000000089e-01

4.475000000000000089e-01

4.425000000000000044e-01

4.299999999999999933e-01

4.124999999999999778e-01

3.775000000000000022e-01

3.449999999999999734e-01

3.325000000000000178e-01

3.375000000000000222e-01

3.375000000000000222e-01

3.250000000000000111e-01

2.899999999999999800e-01

2.625000000000000111e-01

2.449999999999999956e-01

2.399999999999999911e-01

2.399999999999999911e-01

2.325000000000000122e-01

1.875000000000000000e-01

1.499999999999999944e-01

1.100000000000000006e-01

9.249999999999999889e-02

8.749999999999999445e-02

9.249999999999999889e-02

9.249999999999999889e-02

7.499999999999999722e-02

9.249999999999999889e-02

1.325000000000000067e-01

1.625000000000000056e-01

1.700000000000000122e-01

1.625000000000000056e-01

1.325000000000000067e-01

1.100000000000000006e-01

1.049999999999999961e-01

1.275000000000000022e-01

1.350000000000000089e-01

1.325000000000000067e-01

1.174999999999999933e-01

1.000000000000000056e-01

8.749999999999999445e-02

8.749999999999999445e-02

8.749999999999999445e-02

9.249999999999999889e-02

1.000000000000000056e-01

1.150000000000000050e-01

1.325000000000000067e-01

1.449999999999999900e-01

1.524999999999999967e-01

1.575000000000000011e-01

1.575000000000000011e-01

1.575000000000000011e-01

1.499999999999999944e-01

1.400000000000000133e-01

1.400000000000000133e-01

1.499999999999999944e-01

1.675000000000000100e-01

