-4.750000000000000056e-02

-5.249999999999999806e-02

-4.499999999999999833e-02

-4.750000000000000056e-02

-4.000000000000000083e-02

-4.750000000000000056e-02

-4.499999999999999833e-02

-5.000000000000000278e-02

-5.750000000000000250e-02

-5.999999999999999778e-02

-4.750000000000000056e-02

-4.750000000000000056e-02

-4.750000000000000056e-02

-5.000000000000000278e-02

-4.750000000000000056e-02

-5.000000000000000278e-02

-5.000000000000000278e-02

-5.249999999999999806e-02

-5.750000000000000250e-02

-4.750000000000000056e-02

-5.000000000000000278e-02

-4.750000000000000056e-02

-5.000000000000000278e-02

-3.749999999999999861e-02

-4.000000000000000083e-02

-3.749999999999999861e-02

-4.499999999999999833e-02

-4.000000000000000083e-02

-4.499999999999999833e-02

-3.749999999999999861e-02

-3.749999999999999861e-02

-3.500000000000000333e-02

-3.500000000000000333e-02

-3.749999999999999861e-02

-4.750000000000000056e-02

-5.000000000000000278e-02

-5.249999999999999806e-02

-4.750000000000000056e-02

-4.750000000000000056e-02

-4.499999999999999833e-02

-4.499999999999999833e-02

-5.000000000000000278e-02

-5.000000000000000278e-02

-4.499999999999999833e-02

-3.749999999999999861e-02

-4.000000000000000083e-02

-4.000000000000000083e-02

-4.499999999999999833e-02

-3.749999999999999861e-02

-4.750000000000000056e-02

-4.750000000000000056e-02

-5.999999999999999778e-02

-5.999999999999999778e-02

-7.000000000000000666e-02

-7.000000000000000666e-02

-7.749999999999999944e-02

-7.499999999999999722e-02

-6.500000000000000222e-02

-5.249999999999999806e-02

-5.750000000000000250e-02

-5.000000000000000278e-02

-4.499999999999999833e-02

-4.000000000000000083e-02

-3.250000000000000111e-02

-1.499999999999999944e-02

7.499999999999999722e-03

1.499999999999999944e-02

3.250000000000000111e-02

3.500000000000000333e-02

2.500000000000000052e-03

-7.499999999999999722e-02

-1.125000000000000028e-01

-1.375000000000000111e-01

-1.400000000000000133e-01

-1.400000000000000133e-01

-1.275000000000000022e-01

-1.350000000000000089e-01

-1.325000000000000067e-01

-1.325000000000000067e-01

-1.199999999999999956e-01

-1.224999999999999978e-01

-1.074999999999999983e-01

-1.024999999999999939e-01

-1.000000000000000056e-01

-1.100000000000000006e-01

-1.000000000000000056e-01

-8.999999999999999667e-02

-8.250000000000000389e-02

-7.749999999999999944e-02

-7.249999999999999500e-02

-5.249999999999999806e-02

-4.750000000000000056e-02

-3.749999999999999861e-02

2.500000000000000052e-03

5.249999999999999806e-02

1.199999999999999956e-01

2.625000000000000111e-01

5.024999999999999467e-01

8.149999999999999467e-01

1.052499999999999991e+00

1.110000000000000098e+00

8.850000000000000089e-01

3.850000000000000089e-01

-1.849999999999999978e-01

-5.524999999999999911e-01

-7.399999999999999911e-01

-7.249999999999999778e-01

-5.775000000000000133e-01

-4.349999999999999978e-01

-3.200000000000000067e-01

-2.250000000000000056e-01

-1.724999999999999867e-01

-1.400000000000000133e-01

-1.250000000000000000e-01

-1.100000000000000006e-01

-1.000000000000000056e-01

-8.999999999999999667e-02

-8.500000000000000611e-02

-7.749999999999999944e-02

-5.999999999999999778e-02

-4.499999999999999833e-02

-2.750000000000000014e-02

-2.000000000000000042e-02

1.499999999999999944e-02

1.250000000000000069e-02

2.249999999999999917e-02

2.249999999999999917e-02

3.749999999999999861e-02

3.500000000000000333e-02

4.000000000000000083e-02

3.749999999999999861e-02

5.249999999999999806e-02

5.750000000000000250e-02

5.249999999999999806e-02

4.750000000000000056e-02

6.250000000000000000e-02

6.250000000000000000e-02

6.250000000000000000e-02

5.999999999999999778e-02

5.999999999999999778e-02

5.000000000000000278e-02

4.499999999999999833e-02

4.499999999999999833e-02

3.749999999999999861e-02

2.249999999999999917e-02

-3.749999999999999861e-02

-2.750000000000000014e-02

-1.499999999999999944e-02

2.000000000000000042e-02

2.750000000000000014e-02

3.749999999999999861e-02

2.500000000000000139e-02

2.500000000000000139e-02

2.249999999999999917e-02

2.750000000000000014e-02

1.250000000000000069e-02

1.499999999999999944e-02

2.000000000000000042e-02

2.500000000000000139e-02

2.000000000000000042e-02

2.249999999999999917e-02

2.750000000000000014e-02

3.749999999999999861e-02

4.000000000000000083e-02

5.249999999999999806e-02

6.500000000000000222e-02

7.749999999999999944e-02

1.000000000000000056e-01

1.325000000000000067e-01

1.650000000000000078e-01

1.875000000000000000e-01

2.225000000000000033e-01

2.500000000000000000e-01

2.949999999999999845e-01

3.200000000000000067e-01

3.499999999999999778e-01

3.724999999999999978e-01

4.099999999999999756e-01

4.274999999999999911e-01

4.500000000000000111e-01

4.575000000000000178e-01

4.724999999999999756e-01

4.749999999999999778e-01

4.749999999999999778e-01

4.724999999999999756e-01

4.699999999999999734e-01

4.450000000000000067e-01

4.274999999999999911e-01

3.975000000000000200e-01

3.649999999999999911e-01

3.474999999999999756e-01

3.099999999999999978e-01

2.700000000000000178e-01

2.275000000000000078e-01

2.074999999999999900e-01

1.849999999999999978e-01

1.700000000000000122e-01

1.449999999999999900e-01

1.325000000000000067e-01

1.100000000000000006e-01

1.074999999999999983e-01

9.500000000000000111e-02

9.750000000000000333e-02

8.749999999999999445e-02

8.250000000000000389e-02

5.750000000000000250e-02

5.249999999999999806e-02

4.750000000000000056e-02

4.750000000000000056e-02

5.000000000000000278e-02

5.999999999999999778e-02

5.249999999999999806e-02

4.750000000000000056e-02

4.000000000000000083e-02

3.749999999999999861e-02

3.749999999999999861e-02

3.250000000000000111e-02

2.500000000000000139e-02

2.750000000000000014e-02

4.000000000000000083e-02

3.749999999999999861e-02

4.750000000000000056e-02

4.750000000000000056e-02

4.750000000000000056e-02

2.500000000000000139e-02

2.500000000000000139e-02

2.000000000000000042e-02

2.249999999999999917e-02

2.249999999999999917e-02

3.250000000000000111e-02

2.249999999999999917e-02

3.749999999999999861e-02

3.500000000000000333e-02

3.250000000000000111e-02

2.249999999999999917e-02

2.500000000000000139e-02

2.249999999999999917e-02

2.750000000000000014e-02

2.500000000000000139e-02

2.249999999999999917e-02

1.499999999999999944e-02

1.000000000000000021e-02

1.000000000000000021e-02

1.000000000000000021e-02

1.000000000000000021e-02

0.000000000000000000e+00

0.000000000000000000e+00

2.500000000000000052e-03

1.499999999999999944e-02

1.000000000000000021e-02

1.250000000000000069e-02

2.500000000000000052e-03

1.499999999999999944e-02

1.250000000000000069e-02

2.000000000000000042e-02

1.499999999999999944e-02

2.500000000000000139e-02

2.500000000000000139e-02

3.250000000000000111e-02

2.750000000000000014e-02

3.500000000000000333e-02

4.000000000000000083e-02

4.499999999999999833e-02

4.000000000000000083e-02

4.000000000000000083e-02

4.750000000000000056e-02

4.499999999999999833e-02

4.499999999999999833e-02

3.749999999999999861e-02

3.749999999999999861e-02

3.250000000000000111e-02

3.749999999999999861e-02

3.500000000000000333e-02

4.000000000000000083e-02

3.500000000000000333e-02

4.499999999999999833e-02

4.499999999999999833e-02

5.750000000000000250e-02

5.000000000000000278e-02

5.000000000000000278e-02

4.000000000000000083e-02

4.750000000000000056e-02

3.749999999999999861e-02

3.749999999999999861e-02

3.749999999999999861e-02

4.499999999999999833e-02

4.499999999999999833e-02

4.499999999999999833e-02

4.499999999999999833e-02

4.750000000000000056e-02

5.249999999999999806e-02

5.000000000000000278e-02

4.750000000000000056e-02

4.750000000000000056e-02

5.000000000000000278e-02

4.750000000000000056e-02

4.750000000000000056e-02

4.000000000000000083e-02

4.750000000000000056e-02

4.000000000000000083e-02

5.249999999999999806e-02

5.750000000000000250e-02

6.500000000000000222e-02

5.999999999999999778e-02

6.500000000000000222e-02

5.999999999999999778e-02

6.500000000000000222e-02

6.250000000000000000e-02

6.250000000000000000e-02

5.999999999999999778e-02

7.000000000000000666e-02

7.000000000000000666e-02

7.000000000000000666e-02

7.249999999999999500e-02

7.249999999999999500e-02

7.249999999999999500e-02

7.499999999999999722e-02

8.500000000000000611e-02

8.999999999999999667e-02

9.750000000000000333e-02

9.750000000000000333e-02

9.500000000000000111e-02

8.749999999999999445e-02

8.999999999999999667e-02

7.499999999999999722e-02

8.250000000000000389e-02

7.499999999999999722e-02

7.749999999999999944e-02

7.249999999999999500e-02

7.749999999999999944e-02

7.000000000000000666e-02

7.249999999999999500e-02

7.499999999999999722e-02

8.250000000000000389e-02

7.499999999999999722e-02

8.500000000000000611e-02

8.250000000000000389e-02

7.749999999999999944e-02

7.000000000000000666e-02

6.500000000000000222e-02

7.249999999999999500e-02

7.249999999999999500e-02

7.000000000000000666e-02

7.000000000000000666e-02

7.249999999999999500e-02

5.750000000000000250e-02

6.250000000000000000e-02

5.750000000000000250e-02

5.999999999999999778e-02

5.999999999999999778e-02

7.000000000000000666e-02

5.999999999999999778e-02

7.000000000000000666e-02

5.999999999999999778e-02

5.999999999999999778e-02

5.000000000000000278e-02

5.249999999999999806e-02

4.750000000000000056e-02

4.750000000000000056e-02

5.000000000000000278e-02

6.500000000000000222e-02

8.500000000000000611e-02

1.000000000000000056e-01

1.074999999999999983e-01

1.100000000000000006e-01

1.150000000000000050e-01

1.250000000000000000e-01

1.325000000000000067e-01

1.199999999999999956e-01

7.749999999999999944e-02

2.249999999999999917e-02

-2.500000000000000139e-02

-5.249999999999999806e-02

-4.750000000000000056e-02

-5.249999999999999806e-02

-5.249999999999999806e-02

-5.249999999999999806e-02

-4.750000000000000056e-02

-5.249999999999999806e-02

-4.499999999999999833e-02

-5.000000000000000278e-02

-4.000000000000000083e-02

-4.499999999999999833e-02

-4.499999999999999833e-02

-4.750000000000000056e-02

-3.500000000000000333e-02

-2.500000000000000139e-02

-1.499999999999999944e-02

-2.249999999999999917e-02

-2.249999999999999917e-02

0.000000000000000000e+00

1.499999999999999944e-02

6.500000000000000222e-02

1.350000000000000089e-01

2.374999999999999889e-01

4.000000000000000222e-01

6.999999999999999556e-01

1.100000000000000089e+00

1.447500000000000009e+00

1.495000000000000107e+00

1.270000000000000018e+00

6.474999999999999645e-01

-1.100000000000000006e-01

-6.624999999999999778e-01

-9.699999999999999734e-01

-1.044999999999999929e+00

-8.499999999999999778e-01

-6.149999999999999911e-01

-4.324999999999999956e-01

-3.074999999999999956e-01

-2.149999999999999967e-01

-1.650000000000000078e-01

-1.275000000000000022e-01

-1.000000000000000056e-01

-7.749999999999999944e-02

-5.750000000000000250e-02

-3.749999999999999861e-02

-2.500000000000000139e-02

2.500000000000000052e-03

2.750000000000000014e-02

3.749999999999999861e-02

5.750000000000000250e-02

5.999999999999999778e-02

5.999999999999999778e-02

4.750000000000000056e-02

5.249999999999999806e-02

5.249999999999999806e-02

7.249999999999999500e-02

7.000000000000000666e-02

7.249999999999999500e-02

7.499999999999999722e-02

8.749999999999999445e-02

8.500000000000000611e-02

8.500000000000000611e-02

8.749999999999999445e-02

8.999999999999999667e-02

8.999999999999999667e-02

9.500000000000000111e-02

9.750000000000000333e-02

9.750000000000000333e-02

1.024999999999999939e-01

1.024999999999999939e-01

1.074999999999999983e-01

6.500000000000000222e-02

5.000000000000000278e-02

5.000000000000000278e-02

5.999999999999999778e-02

7.249999999999999500e-02

8.749999999999999445e-02

7.249999999999999500e-02

5.999999999999999778e-02

5.249999999999999806e-02

5.000000000000000278e-02

3.500000000000000333e-02

2.500000000000000139e-02

2.000000000000000042e-02

1.499999999999999944e-02

1.250000000000000069e-02

1.499999999999999944e-02

1.250000000000000069e-02

2.000000000000000042e-02

2.249999999999999917e-02

2.750000000000000014e-02

3.749999999999999861e-02

5.750000000000000250e-02

7.749999999999999944e-02

8.999999999999999667e-02

1.150000000000000050e-01

1.499999999999999944e-01

1.900000000000000022e-01

2.124999999999999944e-01

2.474999999999999978e-01

2.750000000000000222e-01

3.225000000000000089e-01

3.574999999999999845e-01

3.975000000000000200e-01

4.274999999999999911e-01

4.650000000000000244e-01

4.974999999999999978e-01

5.274999999999999689e-01

5.374999999999999778e-01

5.500000000000000444e-01

5.574999999999999956e-01

5.600000000000000533e-01

5.524999999999999911e-01

5.374999999999999778e-01

5.200000000000000178e-01

4.949999999999999956e-01

4.650000000000000244e-01

4.349999999999999978e-01

4.074999999999999734e-01

3.624999999999999889e-01

3.325000000000000178e-01

2.999999999999999889e-01

2.750000000000000222e-01

2.374999999999999889e-01

2.225000000000000033e-01

2.000000000000000111e-01

1.900000000000000022e-01

1.700000000000000122e-01

1.625000000000000056e-01

1.474999999999999922e-01

1.375000000000000111e-01

1.250000000000000000e-01

1.199999999999999956e-01

1.074999999999999983e-01

1.100000000000000006e-01

9.750000000000000333e-02

9.750000000000000333e-02

8.999999999999999667e-02

8.749999999999999445e-02

8.749999999999999445e-02

8.999999999999999667e-02

8.749999999999999445e-02

8.999999999999999667e-02

9.500000000000000111e-02

8.500000000000000611e-02

8.250000000000000389e-02

7.749999999999999944e-02

8.250000000000000389e-02

7.499999999999999722e-02

8.500000000000000611e-02

7.749999999999999944e-02

8.250000000000000389e-02

7.749999999999999944e-02

8.500000000000000611e-02

8.500000000000000611e-02

9.500000000000000111e-02

8.999999999999999667e-02

9.500000000000000111e-02

8.500000000000000611e-02

8.250000000000000389e-02

8.250000000000000389e-02

8.500000000000000611e-02

7.749999999999999944e-02

8.250000000000000389e-02

8.500000000000000611e-02

8.500000000000000611e-02

7.499999999999999722e-02

8.250000000000000389e-02

8.749999999999999445e-02

7.749999999999999944e-02

8.250000000000000389e-02

8.250000000000000389e-02

8.500000000000000611e-02

7.499999999999999722e-02

8.250000000000000389e-02

8.250000000000000389e-02

8.749999999999999445e-02

8.250000000000000389e-02

8.749999999999999445e-02

8.500000000000000611e-02

8.999999999999999667e-02

8.500000000000000611e-02

8.500000000000000611e-02

7.499999999999999722e-02

8.250000000000000389e-02

7.499999999999999722e-02

7.499999999999999722e-02

7.499999999999999722e-02

7.749999999999999944e-02

7.000000000000000666e-02

6.250000000000000000e-02

5.999999999999999778e-02

5.999999999999999778e-02

7.000000000000000666e-02

7.000000000000000666e-02

7.000000000000000666e-02

6.500000000000000222e-02

7.499999999999999722e-02

7.249999999999999500e-02

7.499999999999999722e-02

7.000000000000000666e-02

7.499999999999999722e-02

6.250000000000000000e-02

7.000000000000000666e-02

5.999999999999999778e-02

7.249999999999999500e-02

7.749999999999999944e-02

8.500000000000000611e-02

7.749999999999999944e-02

8.999999999999999667e-02

8.749999999999999445e-02

8.999999999999999667e-02

8.749999999999999445e-02

9.500000000000000111e-02

9.750000000000000333e-02

1.000000000000000056e-01

9.500000000000000111e-02

8.749999999999999445e-02

8.250000000000000389e-02

8.500000000000000611e-02

8.999999999999999667e-02

9.750000000000000333e-02

1.074999999999999983e-01

8.999999999999999667e-02

9.750000000000000333e-02

9.750000000000000333e-02

1.000000000000000056e-01

8.999999999999999667e-02

9.500000000000000111e-02

8.749999999999999445e-02

9.750000000000000333e-02

9.750000000000000333e-02

1.074999999999999983e-01

1.024999999999999939e-01

1.100000000000000006e-01

1.100000000000000006e-01

1.125000000000000028e-01

1.074999999999999983e-01

1.150000000000000050e-01

1.224999999999999978e-01

1.250000000000000000e-01

1.224999999999999978e-01

1.250000000000000000e-01

1.250000000000000000e-01

1.199999999999999956e-01

1.224999999999999978e-01

1.275000000000000022e-01

1.325000000000000067e-01

1.250000000000000000e-01

1.275000000000000022e-01

1.224999999999999978e-01

1.199999999999999956e-01

1.024999999999999939e-01

1.074999999999999983e-01

1.000000000000000056e-01

1.125000000000000028e-01

1.100000000000000006e-01

1.125000000000000028e-01

1.024999999999999939e-01

1.024999999999999939e-01

1.024999999999999939e-01

1.074999999999999983e-01

1.024999999999999939e-01

1.074999999999999983e-01

1.125000000000000028e-01

1.100000000000000006e-01

9.750000000000000333e-02

9.750000000000000333e-02

9.750000000000000333e-02

8.749999999999999445e-02

7.749999999999999944e-02

7.749999999999999944e-02

8.500000000000000611e-02

7.749999999999999944e-02

8.500000000000000611e-02

7.499999999999999722e-02

7.499999999999999722e-02

7.000000000000000666e-02

7.499999999999999722e-02

6.500000000000000222e-02

6.250000000000000000e-02

5.249999999999999806e-02

5.000000000000000278e-02

3.749999999999999861e-02

3.500000000000000333e-02

2.500000000000000139e-02

2.750000000000000014e-02

2.750000000000000014e-02

3.749999999999999861e-02

6.250000000000000000e-02

8.749999999999999445e-02

1.000000000000000056e-01

1.125000000000000028e-01

1.224999999999999978e-01

1.250000000000000000e-01

1.375000000000000111e-01

1.499999999999999944e-01

1.600000000000000033e-01

1.125000000000000028e-01

6.250000000000000000e-02

1.000000000000000021e-02

-2.249999999999999917e-02

-3.749999999999999861e-02

-3.250000000000000111e-02

-3.749999999999999861e-02

-3.500000000000000333e-02

-4.499999999999999833e-02

-3.500000000000000333e-02

-4.000000000000000083e-02

-2.750000000000000014e-02

-3.250000000000000111e-02

-3.250000000000000111e-02

-3.250000000000000111e-02

-2.500000000000000139e-02

-1.499999999999999944e-02

1.000000000000000021e-02

5.750000000000000250e-02

1.250000000000000000e-01

2.325000000000000122e-01

4.099999999999999756e-01

7.225000000000000311e-01

1.122500000000000053e+00

1.475000000000000089e+00

1.537500000000000089e+00

1.320000000000000062e+00

6.824999999999999956e-01

-1.100000000000000006e-01

-7.199999999999999734e-01

-1.060000000000000053e+00

-1.139999999999999902e+00

-9.250000000000000444e-01

-6.824999999999999956e-01

-4.949999999999999956e-01

-3.649999999999999911e-01

-2.824999999999999734e-01

-2.250000000000000056e-01

-1.774999999999999911e-01

-1.499999999999999944e-01

-1.325000000000000067e-01

-1.074999999999999983e-01

-7.749999999999999944e-02

-5.000000000000000278e-02

-2.500000000000000139e-02

1.250000000000000069e-02

2.500000000000000139e-02

4.750000000000000056e-02

5.999999999999999778e-02

7.000000000000000666e-02

5.999999999999999778e-02

6.500000000000000222e-02

6.250000000000000000e-02

7.000000000000000666e-02

6.500000000000000222e-02

8.250000000000000389e-02

8.500000000000000611e-02

9.750000000000000333e-02

1.000000000000000056e-01

1.024999999999999939e-01

1.024999999999999939e-01

1.024999999999999939e-01

9.750000000000000333e-02

9.750000000000000333e-02

9.500000000000000111e-02

8.999999999999999667e-02

8.749999999999999445e-02

7.499999999999999722e-02

7.249999999999999500e-02

3.250000000000000111e-02

2.500000000000000139e-02

2.000000000000000042e-02

3.749999999999999861e-02

4.750000000000000056e-02

5.249999999999999806e-02

2.249999999999999917e-02

1.250000000000000069e-02

1.000000000000000021e-02

2.249999999999999917e-02

2.249999999999999917e-02

-2.000000000000000042e-02

-3.500000000000000333e-02

-2.249999999999999917e-02

-5.750000000000000250e-02

-8.500000000000000611e-02

-5.750000000000000250e-02

-2.750000000000000014e-02

0.000000000000000000e+00

0.000000000000000000e+00

-4.000000000000000083e-02

-3.500000000000000333e-02

1.000000000000000021e-02

3.749999999999999861e-02

7.249999999999999500e-02

8.999999999999999667e-02

9.750000000000000333e-02

1.449999999999999900e-01

1.824999999999999956e-01

2.250000000000000056e-01

2.575000000000000067e-01

3.150000000000000022e-01

3.699999999999999956e-01

3.825000000000000067e-01

3.724999999999999978e-01

4.025000000000000244e-01

4.849999999999999867e-01

5.224999999999999645e-01

5.574999999999999956e-01

5.374999999999999778e-01

5.350000000000000311e-01

4.849999999999999867e-01

4.724999999999999756e-01

4.724999999999999756e-01

4.625000000000000222e-01

4.124999999999999778e-01

3.900000000000000133e-01

3.750000000000000000e-01

3.099999999999999978e-01

2.575000000000000067e-01

2.374999999999999889e-01

1.975000000000000089e-01

1.499999999999999944e-01

1.275000000000000022e-01

1.100000000000000006e-01

1.100000000000000006e-01

8.500000000000000611e-02

8.749999999999999445e-02

8.749999999999999445e-02

5.999999999999999778e-02

5.000000000000000278e-02

3.749999999999999861e-02

0.000000000000000000e+00

0.000000000000000000e+00

1.250000000000000069e-02

2.750000000000000014e-02

4.000000000000000083e-02

5.000000000000000278e-02

5.750000000000000250e-02

2.000000000000000042e-02

-2.249999999999999917e-02

-4.499999999999999833e-02

-5.000000000000000278e-02

-2.500000000000000139e-02

2.000000000000000042e-02

3.749999999999999861e-02

3.500000000000000333e-02

0.000000000000000000e+00

2.500000000000000052e-03

1.499999999999999944e-02

3.250000000000000111e-02

0.000000000000000000e+00

-4.750000000000000056e-02

-5.000000000000000278e-02

-5.000000000000000278e-02

-4.750000000000000056e-02

-5.750000000000000250e-02

-5.249999999999999806e-02

-2.500000000000000139e-02

7.499999999999999722e-03

0.000000000000000000e+00

-2.249999999999999917e-02

-3.250000000000000111e-02

-2.500000000000000139e-02

-3.749999999999999861e-02

-3.250000000000000111e-02

-2.750000000000000014e-02

-4.000000000000000083e-02

-2.750000000000000014e-02

-2.500000000000000139e-02

-4.000000000000000083e-02

-2.750000000000000014e-02

-3.250000000000000111e-02

0.000000000000000000e+00

1.499999999999999944e-02

-2.000000000000000042e-02

7.499999999999999722e-03

1.499999999999999944e-02

0.000000000000000000e+00

0.000000000000000000e+00

-2.000000000000000042e-02

-5.249999999999999806e-02

-3.250000000000000111e-02

1.499999999999999944e-02

0.000000000000000000e+00

-2.000000000000000042e-02

0.000000000000000000e+00

-2.000000000000000042e-02

-2.500000000000000139e-02

1.000000000000000021e-02

2.500000000000000052e-03

0.000000000000000000e+00

1.250000000000000069e-02

2.000000000000000042e-02

0.000000000000000000e+00

1.000000000000000021e-02

2.500000000000000052e-03

-2.000000000000000042e-02

2.500000000000000052e-03

-2.249999999999999917e-02

1.250000000000000069e-02

0.000000000000000000e+00

7.499999999999999722e-03

-3.250000000000000111e-02

-3.250000000000000111e-02

-5.249999999999999806e-02

-2.000000000000000042e-02

-3.500000000000000333e-02

-2.000000000000000042e-02

1.000000000000000021e-02

1.499999999999999944e-02

-2.000000000000000042e-02

0.000000000000000000e+00

2.500000000000000052e-03

2.500000000000000052e-03

2.249999999999999917e-02

2.500000000000000139e-02

2.500000000000000139e-02

1.250000000000000069e-02

1.250000000000000069e-02

0.000000000000000000e+00

-2.500000000000000139e-02

-2.249999999999999917e-02

-2.249999999999999917e-02

-2.249999999999999917e-02

1.000000000000000021e-02

0.000000000000000000e+00

-2.750000000000000014e-02

-3.500000000000000333e-02

0.000000000000000000e+00

0.000000000000000000e+00

1.499999999999999944e-02

1.250000000000000069e-02

1.250000000000000069e-02

7.499999999999999722e-03

1.250000000000000069e-02

2.500000000000000052e-03

2.500000000000000052e-03

2.500000000000000052e-03

7.499999999999999722e-03

0.000000000000000000e+00

-1.499999999999999944e-02

0.000000000000000000e+00

0.000000000000000000e+00

-1.499999999999999944e-02

-2.000000000000000042e-02

-2.000000000000000042e-02

-2.249999999999999917e-02

0.000000000000000000e+00

0.000000000000000000e+00

2.500000000000000052e-03

-1.499999999999999944e-02

0.000000000000000000e+00

0.000000000000000000e+00

1.000000000000000021e-02

0.000000000000000000e+00

7.499999999999999722e-03

2.500000000000000052e-03

1.250000000000000069e-02

2.500000000000000052e-03

7.499999999999999722e-03

1.000000000000000021e-02

2.249999999999999917e-02

2.249999999999999917e-02

2.249999999999999917e-02

1.499999999999999944e-02

2.000000000000000042e-02

1.499999999999999944e-02

2.000000000000000042e-02

2.500000000000000139e-02

2.750000000000000014e-02

3.250000000000000111e-02

3.250000000000000111e-02

3.500000000000000333e-02

2.249999999999999917e-02

2.750000000000000014e-02

2.249999999999999917e-02

2.000000000000000042e-02

1.250000000000000069e-02

2.000000000000000042e-02

1.499999999999999944e-02

2.000000000000000042e-02

1.000000000000000021e-02

1.250000000000000069e-02

7.499999999999999722e-03

7.499999999999999722e-03

-1.250000000000000069e-02

2.500000000000000052e-03

7.499999999999999722e-03

1.000000000000000021e-02

2.500000000000000052e-03

-1.499999999999999944e-02

-2.750000000000000014e-02

-3.500000000000000333e-02

-3.250000000000000111e-02

-2.500000000000000139e-02

-2.249999999999999917e-02

-2.750000000000000014e-02

-2.750000000000000014e-02

-2.750000000000000014e-02

-1.499999999999999944e-02

-1.250000000000000069e-02

1.000000000000000021e-02

1.499999999999999944e-02

3.250000000000000111e-02

3.250000000000000111e-02

4.750000000000000056e-02

5.999999999999999778e-02

7.749999999999999944e-02

5.750000000000000250e-02

7.499999999999999722e-03

-6.250000000000000000e-02

-8.250000000000000389e-02

-9.500000000000000111e-02

-8.749999999999999445e-02

-8.749999999999999445e-02

-7.249999999999999500e-02

-2.500000000000000139e-02

6.250000000000000000e-02

1.849999999999999978e-01

3.825000000000000067e-01

6.750000000000000444e-01

9.475000000000000089e-01

1.107499999999999929e+00

1.034999999999999920e+00

6.899999999999999467e-01

1.199999999999999956e-01

-4.000000000000000222e-01

-7.275000000000000355e-01

-8.699999999999999956e-01

-8.074999999999999956e-01

-6.250000000000000000e-01

-4.824999999999999845e-01

-3.599999999999999867e-01

-2.824999999999999734e-01

-2.399999999999999911e-01

-2.374999999999999889e-01

-2.124999999999999944e-01

-1.950000000000000067e-01

-1.774999999999999911e-01

-1.724999999999999867e-01

-1.600000000000000033e-01

-1.400000000000000133e-01

-1.150000000000000050e-01

-9.500000000000000111e-02

-7.749999999999999944e-02

-6.500000000000000222e-02

-7.249999999999999500e-02

-7.749999999999999944e-02

-7.749999999999999944e-02

-6.500000000000000222e-02

-7.249999999999999500e-02

-6.500000000000000222e-02

-6.500000000000000222e-02

-4.000000000000000083e-02

-3.250000000000000111e-02

-2.249999999999999917e-02

-2.249999999999999917e-02

0.000000000000000000e+00

2.500000000000000052e-03

1.250000000000000069e-02

1.000000000000000021e-02

2.249999999999999917e-02

2.000000000000000042e-02

2.249999999999999917e-02

2.000000000000000042e-02

2.000000000000000042e-02

2.000000000000000042e-02

-2.750000000000000014e-02

-4.000000000000000083e-02

-3.250000000000000111e-02

-2.500000000000000139e-02

-2.249999999999999917e-02

2.500000000000000052e-03

0.000000000000000000e+00

2.500000000000000052e-03

7.499999999999999722e-03

2.000000000000000042e-02

1.250000000000000069e-02

2.249999999999999917e-02

1.499999999999999944e-02

2.750000000000000014e-02

2.500000000000000139e-02

3.749999999999999861e-02

3.749999999999999861e-02

4.750000000000000056e-02

4.750000000000000056e-02

5.999999999999999778e-02

7.499999999999999722e-02

9.500000000000000111e-02

1.024999999999999939e-01

1.199999999999999956e-01

1.375000000000000111e-01

1.625000000000000056e-01

1.950000000000000067e-01

2.225000000000000033e-01

2.600000000000000089e-01

2.849999999999999756e-01

3.200000000000000067e-01

3.474999999999999756e-01

3.850000000000000089e-01

4.074999999999999734e-01

4.375000000000000000e-01

4.575000000000000178e-01

4.724999999999999756e-01

4.699999999999999734e-01

4.774999999999999800e-01

4.699999999999999734e-01

4.724999999999999756e-01

4.600000000000000200e-01

4.500000000000000111e-01

4.224999999999999867e-01

4.124999999999999778e-01

3.875000000000000111e-01

3.499999999999999778e-01

3.150000000000000022e-01

2.949999999999999845e-01

2.725000000000000200e-01

2.500000000000000000e-01

2.275000000000000078e-01

2.025000000000000133e-01

1.849999999999999978e-01

1.625000000000000056e-01

1.499999999999999944e-01

1.350000000000000089e-01

1.224999999999999978e-01

1.024999999999999939e-01

1.074999999999999983e-01

9.750000000000000333e-02

1.000000000000000056e-01

9.750000000000000333e-02

1.000000000000000056e-01

8.749999999999999445e-02

8.999999999999999667e-02

8.749999999999999445e-02

8.749999999999999445e-02

7.749999999999999944e-02

8.250000000000000389e-02

7.749999999999999944e-02

8.500000000000000611e-02

7.749999999999999944e-02

7.749999999999999944e-02

7.499999999999999722e-02

7.000000000000000666e-02

6.500000000000000222e-02

5.999999999999999778e-02

6.250000000000000000e-02

5.999999999999999778e-02

5.999999999999999778e-02

5.999999999999999778e-02

6.500000000000000222e-02

5.249999999999999806e-02

5.999999999999999778e-02

5.999999999999999778e-02

7.000000000000000666e-02

5.750000000000000250e-02

5.999999999999999778e-02

5.000000000000000278e-02

5.750000000000000250e-02

4.750000000000000056e-02

4.499999999999999833e-02

3.749999999999999861e-02

4.750000000000000056e-02

5.000000000000000278e-02

5.750000000000000250e-02

5.000000000000000278e-02

4.750000000000000056e-02

3.749999999999999861e-02

3.749999999999999861e-02

3.500000000000000333e-02

4.000000000000000083e-02

5.000000000000000278e-02

4.750000000000000056e-02

5.000000000000000278e-02

5.999999999999999778e-02

6.500000000000000222e-02

5.750000000000000250e-02

5.999999999999999778e-02

5.750000000000000250e-02

5.999999999999999778e-02

4.750000000000000056e-02

5.000000000000000278e-02

3.749999999999999861e-02

3.749999999999999861e-02

3.250000000000000111e-02

3.250000000000000111e-02

2.500000000000000139e-02

3.250000000000000111e-02

3.250000000000000111e-02

3.250000000000000111e-02

2.000000000000000042e-02

1.250000000000000069e-02

1.499999999999999944e-02

2.249999999999999917e-02

2.249999999999999917e-02

2.249999999999999917e-02

2.249999999999999917e-02

2.750000000000000014e-02

3.749999999999999861e-02

4.000000000000000083e-02

5.000000000000000278e-02

4.499999999999999833e-02

4.499999999999999833e-02

4.000000000000000083e-02

5.000000000000000278e-02

4.750000000000000056e-02

5.249999999999999806e-02

5.000000000000000278e-02

5.750000000000000250e-02

5.000000000000000278e-02

5.750000000000000250e-02

5.249999999999999806e-02

6.250000000000000000e-02

6.250000000000000000e-02

6.250000000000000000e-02

5.249999999999999806e-02

5.000000000000000278e-02

4.750000000000000056e-02

4.499999999999999833e-02

4.000000000000000083e-02

4.750000000000000056e-02

5.249999999999999806e-02

5.000000000000000278e-02

5.750000000000000250e-02

5.750000000000000250e-02

7.000000000000000666e-02

6.500000000000000222e-02

7.499999999999999722e-02

7.000000000000000666e-02

7.249999999999999500e-02

6.500000000000000222e-02

7.000000000000000666e-02

5.999999999999999778e-02

7.000000000000000666e-02

6.500000000000000222e-02

5.999999999999999778e-02

5.249999999999999806e-02

6.500000000000000222e-02

7.249999999999999500e-02

7.249999999999999500e-02

5.750000000000000250e-02

5.000000000000000278e-02

5.000000000000000278e-02

5.000000000000000278e-02

5.000000000000000278e-02

4.750000000000000056e-02

4.750000000000000056e-02

4.499999999999999833e-02

4.750000000000000056e-02

5.000000000000000278e-02

5.750000000000000250e-02

4.750000000000000056e-02

5.249999999999999806e-02

5.750000000000000250e-02

7.000000000000000666e-02

6.500000000000000222e-02

7.249999999999999500e-02

6.500000000000000222e-02

7.499999999999999722e-02

8.500000000000000611e-02

8.500000000000000611e-02

7.499999999999999722e-02

7.249999999999999500e-02

6.500000000000000222e-02

7.000000000000000666e-02

7.000000000000000666e-02

7.249999999999999500e-02

6.250000000000000000e-02

5.750000000000000250e-02

6.250000000000000000e-02

7.000000000000000666e-02

8.250000000000000389e-02

8.250000000000000389e-02

8.250000000000000389e-02

8.250000000000000389e-02

8.500000000000000611e-02

7.499999999999999722e-02

8.250000000000000389e-02

7.499999999999999722e-02

8.250000000000000389e-02

7.249999999999999500e-02

7.499999999999999722e-02

7.249999999999999500e-02

7.499999999999999722e-02

7.249999999999999500e-02

7.499999999999999722e-02

7.000000000000000666e-02

7.499999999999999722e-02

7.249999999999999500e-02

7.249999999999999500e-02

7.000000000000000666e-02

6.500000000000000222e-02

7.249999999999999500e-02

7.499999999999999722e-02

7.249999999999999500e-02

7.000000000000000666e-02

7.249999999999999500e-02

6.250000000000000000e-02

6.250000000000000000e-02

5.750000000000000250e-02

6.250000000000000000e-02

4.750000000000000056e-02

3.749999999999999861e-02

2.249999999999999917e-02

2.000000000000000042e-02

7.499999999999999722e-03

1.499999999999999944e-02

1.250000000000000069e-02

2.750000000000000014e-02

3.500000000000000333e-02

3.749999999999999861e-02

4.000000000000000083e-02

5.750000000000000250e-02

7.000000000000000666e-02

7.249999999999999500e-02

7.249999999999999500e-02

8.749999999999999445e-02

1.024999999999999939e-01

1.125000000000000028e-01

8.999999999999999667e-02

3.500000000000000333e-02

7.499999999999999722e-03

3.250000000000000111e-02

1.100000000000000006e-01

2.449999999999999956e-01

4.699999999999999734e-01

7.900000000000000355e-01

1.147499999999999964e+00

1.372500000000000053e+00

1.347499999999999920e+00

9.875000000000000444e-01

3.225000000000000089e-01

-3.850000000000000089e-01

-8.399999999999999689e-01

-1.094999999999999973e+00

-1.064999999999999947e+00

-8.575000000000000400e-01

-6.474999999999999645e-01

-5.024999999999999467e-01

-3.900000000000000133e-01

-3.125000000000000000e-01

-2.725000000000000200e-01

-2.349999999999999867e-01

-2.074999999999999900e-01

-1.950000000000000067e-01

-1.749999999999999889e-01

-1.499999999999999944e-01

-1.350000000000000089e-01

-1.000000000000000056e-01

-7.749999999999999944e-02

-5.249999999999999806e-02

-4.000000000000000083e-02

-2.750000000000000014e-02

-3.250000000000000111e-02

-2.750000000000000014e-02

-3.250000000000000111e-02

-2.000000000000000042e-02

-2.249999999999999917e-02

0.000000000000000000e+00

1.000000000000000021e-02

2.249999999999999917e-02

2.000000000000000042e-02

2.500000000000000139e-02

3.250000000000000111e-02

3.500000000000000333e-02

3.250000000000000111e-02

4.000000000000000083e-02

4.750000000000000056e-02

5.000000000000000278e-02

5.249999999999999806e-02

5.750000000000000250e-02

5.999999999999999778e-02

4.750000000000000056e-02

0.000000000000000000e+00

-2.750000000000000014e-02

-1.499999999999999944e-02

0.000000000000000000e+00

2.500000000000000139e-02

2.500000000000000139e-02

2.249999999999999917e-02

1.250000000000000069e-02

2.249999999999999917e-02

2.249999999999999917e-02

2.500000000000000139e-02

1.499999999999999944e-02

1.000000000000000021e-02

-1.499999999999999944e-02

-1.499999999999999944e-02

-2.000000000000000042e-02

2.500000000000000052e-03

1.000000000000000021e-02

2.000000000000000042e-02

2.249999999999999917e-02

4.000000000000000083e-02

6.250000000000000000e-02

8.500000000000000611e-02

1.000000000000000056e-01

1.125000000000000028e-01

1.449999999999999900e-01

1.749999999999999889e-01

2.124999999999999944e-01

2.399999999999999911e-01

2.849999999999999756e-01

3.200000000000000067e-01

3.699999999999999956e-01

4.099999999999999756e-01

4.500000000000000111e-01

4.749999999999999778e-01

5.124999999999999556e-01

5.400000000000000355e-01

5.625000000000000000e-01

5.699999999999999512e-01

5.825000000000000178e-01

5.825000000000000178e-01

5.725000000000000089e-01

5.574999999999999956e-01

5.450000000000000400e-01

5.274999999999999689e-01

4.974999999999999978e-01

4.625000000000000222e-01

4.224999999999999867e-01

3.975000000000000200e-01

3.574999999999999845e-01

3.350000000000000200e-01

3.024999999999999911e-01

2.750000000000000222e-01

2.449999999999999956e-01

2.225000000000000033e-01

1.975000000000000089e-01

1.824999999999999956e-01

1.600000000000000033e-01

1.575000000000000011e-01

1.400000000000000133e-01

1.375000000000000111e-01

1.224999999999999978e-01

1.224999999999999978e-01

1.125000000000000028e-01

1.199999999999999956e-01

1.125000000000000028e-01

1.024999999999999939e-01

9.750000000000000333e-02

9.500000000000000111e-02

9.750000000000000333e-02

9.750000000000000333e-02

9.500000000000000111e-02

8.250000000000000389e-02

8.749999999999999445e-02

8.250000000000000389e-02

7.749999999999999944e-02

7.000000000000000666e-02

7.249999999999999500e-02

6.250000000000000000e-02

7.000000000000000666e-02

6.250000000000000000e-02

6.500000000000000222e-02

5.750000000000000250e-02

5.999999999999999778e-02

5.249999999999999806e-02

5.750000000000000250e-02

5.249999999999999806e-02

6.250000000000000000e-02

5.999999999999999778e-02

6.500000000000000222e-02

7.000000000000000666e-02

6.500000000000000222e-02

6.500000000000000222e-02

7.000000000000000666e-02

7.000000000000000666e-02

5.249999999999999806e-02

4.499999999999999833e-02

4.499999999999999833e-02

5.249999999999999806e-02

5.249999999999999806e-02

5.249999999999999806e-02

4.750000000000000056e-02

4.750000000000000056e-02

4.499999999999999833e-02

5.999999999999999778e-02

5.000000000000000278e-02

5.249999999999999806e-02

5.000000000000000278e-02

5.249999999999999806e-02

4.750000000000000056e-02

5.000000000000000278e-02

4.499999999999999833e-02

4.000000000000000083e-02

3.500000000000000333e-02

4.000000000000000083e-02

3.749999999999999861e-02

4.000000000000000083e-02

3.250000000000000111e-02

3.500000000000000333e-02

3.500000000000000333e-02

3.500000000000000333e-02

2.500000000000000139e-02

2.500000000000000139e-02

3.500000000000000333e-02

2.750000000000000014e-02

3.500000000000000333e-02

3.500000000000000333e-02

3.749999999999999861e-02

2.500000000000000139e-02

3.500000000000000333e-02

3.250000000000000111e-02

3.749999999999999861e-02

3.250000000000000111e-02

4.750000000000000056e-02

3.749999999999999861e-02

4.750000000000000056e-02

4.000000000000000083e-02

4.750000000000000056e-02

4.499999999999999833e-02

4.750000000000000056e-02

3.749999999999999861e-02

4.000000000000000083e-02

3.749999999999999861e-02

4.000000000000000083e-02

4.750000000000000056e-02

4.000000000000000083e-02

3.749999999999999861e-02

4.000000000000000083e-02

5.000000000000000278e-02

5.249999999999999806e-02

5.000000000000000278e-02

4.000000000000000083e-02

3.749999999999999861e-02

3.250000000000000111e-02

4.499999999999999833e-02

4.000000000000000083e-02

4.499999999999999833e-02

3.500000000000000333e-02

4.000000000000000083e-02

4.499999999999999833e-02

5.249999999999999806e-02

5.000000000000000278e-02

5.249999999999999806e-02

4.750000000000000056e-02

5.750000000000000250e-02

6.500000000000000222e-02

7.499999999999999722e-02

7.249999999999999500e-02

7.749999999999999944e-02

7.499999999999999722e-02

6.250000000000000000e-02

6.250000000000000000e-02

5.999999999999999778e-02

7.249999999999999500e-02

6.500000000000000222e-02

6.250000000000000000e-02

6.250000000000000000e-02

7.249999999999999500e-02

6.500000000000000222e-02

6.500000000000000222e-02

5.999999999999999778e-02

5.750000000000000250e-02

5.249999999999999806e-02

7.000000000000000666e-02

6.500000000000000222e-02

7.000000000000000666e-02

6.250000000000000000e-02

5.999999999999999778e-02

5.750000000000000250e-02

7.249999999999999500e-02

7.249999999999999500e-02

7.000000000000000666e-02

7.000000000000000666e-02

7.499999999999999722e-02

8.500000000000000611e-02

7.749999999999999944e-02

7.749999999999999944e-02

7.749999999999999944e-02

8.250000000000000389e-02

7.249999999999999500e-02

7.749999999999999944e-02

7.499999999999999722e-02

7.249999999999999500e-02

7.000000000000000666e-02

7.249999999999999500e-02

7.249999999999999500e-02

7.749999999999999944e-02

7.499999999999999722e-02

7.749999999999999944e-02

7.249999999999999500e-02

8.250000000000000389e-02

8.500000000000000611e-02

7.749999999999999944e-02

6.250000000000000000e-02

5.999999999999999778e-02

5.249999999999999806e-02

5.249999999999999806e-02

4.750000000000000056e-02

5.000000000000000278e-02

5.249999999999999806e-02

4.750000000000000056e-02

4.750000000000000056e-02

4.000000000000000083e-02

4.499999999999999833e-02

4.499999999999999833e-02

4.750000000000000056e-02

4.000000000000000083e-02

4.000000000000000083e-02

2.249999999999999917e-02

2.249999999999999917e-02

2.000000000000000042e-02

2.249999999999999917e-02

1.499999999999999944e-02

2.249999999999999917e-02

2.249999999999999917e-02

4.000000000000000083e-02

5.000000000000000278e-02

7.000000000000000666e-02

7.749999999999999944e-02

9.750000000000000333e-02

1.024999999999999939e-01

1.100000000000000006e-01

1.199999999999999956e-01

1.275000000000000022e-01

1.100000000000000006e-01

5.999999999999999778e-02

2.000000000000000042e-02

-2.750000000000000014e-02

-4.499999999999999833e-02

-5.000000000000000278e-02

-5.000000000000000278e-02

-4.750000000000000056e-02

-3.250000000000000111e-02

-2.500000000000000139e-02

2.249999999999999917e-02

8.500000000000000611e-02

1.975000000000000089e-01

3.724999999999999978e-01

6.700000000000000400e-01

1.040000000000000036e+00

1.422500000000000098e+00

1.544999999999999929e+00

1.395000000000000018e+00

8.349999999999999645e-01

4.000000000000000083e-02

-6.400000000000000133e-01

-1.040000000000000036e+00

-1.187500000000000000e+00

-1.024999999999999911e+00

-7.700000000000000178e-01

-5.775000000000000133e-01

-4.324999999999999956e-01

-3.200000000000000067e-01

-2.575000000000000067e-01

-2.250000000000000056e-01

-1.900000000000000022e-01

-1.774999999999999911e-01

-1.524999999999999967e-01

-1.250000000000000000e-01

-9.750000000000000333e-02

-8.749999999999999445e-02

-5.000000000000000278e-02

-3.749999999999999861e-02

-2.249999999999999917e-02

2.500000000000000052e-03

2.000000000000000042e-02

1.499999999999999944e-02

2.000000000000000042e-02

2.249999999999999917e-02

3.250000000000000111e-02

3.500000000000000333e-02

4.499999999999999833e-02

4.750000000000000056e-02

5.750000000000000250e-02

6.250000000000000000e-02

5.750000000000000250e-02

6.250000000000000000e-02

5.249999999999999806e-02

5.750000000000000250e-02

5.999999999999999778e-02

7.249999999999999500e-02

6.500000000000000222e-02

7.000000000000000666e-02

5.750000000000000250e-02

7.000000000000000666e-02

3.250000000000000111e-02

2.000000000000000042e-02

2.249999999999999917e-02

4.000000000000000083e-02

4.750000000000000056e-02

5.750000000000000250e-02

5.000000000000000278e-02

4.000000000000000083e-02

4.499999999999999833e-02

5.249999999999999806e-02

4.750000000000000056e-02

2.750000000000000014e-02

1.250000000000000069e-02

1.000000000000000021e-02

7.499999999999999722e-03

0.000000000000000000e+00

-2.249999999999999917e-02

0.000000000000000000e+00

1.000000000000000021e-02

2.500000000000000052e-03

2.249999999999999917e-02

3.749999999999999861e-02

5.999999999999999778e-02

7.499999999999999722e-02

1.100000000000000006e-01

1.275000000000000022e-01

1.650000000000000078e-01

1.950000000000000067e-01

2.449999999999999956e-01

2.750000000000000222e-01

3.275000000000000133e-01

3.699999999999999956e-01

4.124999999999999778e-01

4.450000000000000067e-01

4.874999999999999889e-01

5.224999999999999645e-01

5.524999999999999911e-01

5.699999999999999512e-01

5.875000000000000222e-01

6.025000000000000355e-01

6.099999999999999867e-01

6.099999999999999867e-01

5.999999999999999778e-01

5.899999999999999689e-01

5.574999999999999956e-01

5.274999999999999689e-01

4.974999999999999978e-01

4.749999999999999778e-01

4.249999999999999889e-01

4.000000000000000222e-01

3.449999999999999734e-01

3.200000000000000067e-01

2.824999999999999734e-01

2.474999999999999978e-01

2.225000000000000033e-01

2.000000000000000111e-01

1.849999999999999978e-01

1.900000000000000022e-01

1.650000000000000078e-01

1.449999999999999900e-01

1.400000000000000133e-01

1.150000000000000050e-01

1.000000000000000056e-01

7.499999999999999722e-02

5.999999999999999778e-02

5.249999999999999806e-02

4.750000000000000056e-02

5.249999999999999806e-02

5.750000000000000250e-02

1.499999999999999944e-02

3.749999999999999861e-02

4.750000000000000056e-02

3.250000000000000111e-02

1.250000000000000069e-02

0.000000000000000000e+00

-3.250000000000000111e-02

-2.500000000000000139e-02

0.000000000000000000e+00

-3.250000000000000111e-02

-5.000000000000000278e-02

-3.749999999999999861e-02

-3.250000000000000111e-02

-5.999999999999999778e-02

-5.750000000000000250e-02

-5.249999999999999806e-02

-5.000000000000000278e-02

-5.750000000000000250e-02

-6.250000000000000000e-02

-4.750000000000000056e-02

-4.750000000000000056e-02

-5.000000000000000278e-02

-6.250000000000000000e-02

-5.750000000000000250e-02

-6.250000000000000000e-02

-8.250000000000000389e-02

-7.749999999999999944e-02

-1.449999999999999900e-01

-1.250000000000000000e-01

-9.750000000000000333e-02

-7.000000000000000666e-02

-6.250000000000000000e-02

-4.499999999999999833e-02

-5.750000000000000250e-02

-5.249999999999999806e-02

-7.749999999999999944e-02

-8.250000000000000389e-02

-8.500000000000000611e-02

-8.500000000000000611e-02

-7.499999999999999722e-02

-3.749999999999999861e-02

-3.749999999999999861e-02

-3.250000000000000111e-02

-7.000000000000000666e-02

-1.000000000000000056e-01

-7.000000000000000666e-02

-7.499999999999999722e-02

-2.249999999999999917e-02

-4.499999999999999833e-02

-6.250000000000000000e-02

-5.750000000000000250e-02

-3.500000000000000333e-02

-2.249999999999999917e-02

1.250000000000000069e-02

-3.749999999999999861e-02

-4.750000000000000056e-02

-5.750000000000000250e-02

-4.000000000000000083e-02

-5.750000000000000250e-02

-5.999999999999999778e-02

-5.000000000000000278e-02

-7.000000000000000666e-02

-7.499999999999999722e-02

-5.000000000000000278e-02

-2.249999999999999917e-02

-1.499999999999999944e-02

1.499999999999999944e-02

0.000000000000000000e+00

-1.250000000000000069e-02

-5.000000000000000278e-02

-6.250000000000000000e-02

-7.499999999999999722e-02

-6.500000000000000222e-02

-3.500000000000000333e-02

2.249999999999999917e-02

0.000000000000000000e+00

-3.500000000000000333e-02

-2.500000000000000139e-02

-2.249999999999999917e-02

-5.000000000000000278e-02

2.500000000000000052e-03

-2.500000000000000139e-02

-3.749999999999999861e-02

-4.750000000000000056e-02

-4.000000000000000083e-02

-5.999999999999999778e-02

-2.500000000000000139e-02

2.249999999999999917e-02

4.499999999999999833e-02

-1.250000000000000069e-02

-2.500000000000000139e-02

-2.249999999999999917e-02

0.000000000000000000e+00

-2.000000000000000042e-02

-2.249999999999999917e-02

-2.249999999999999917e-02

-3.250000000000000111e-02

-3.749999999999999861e-02

-4.000000000000000083e-02

-4.750000000000000056e-02

-4.000000000000000083e-02

-1.499999999999999944e-02

-2.249999999999999917e-02

-5.249999999999999806e-02

-2.750000000000000014e-02

-2.500000000000000139e-02

-2.000000000000000042e-02

2.000000000000000042e-02

2.500000000000000139e-02

1.250000000000000069e-02

-1.499999999999999944e-02

2.750000000000000014e-02

7.499999999999999722e-03

2.249999999999999917e-02

2.249999999999999917e-02

-2.249999999999999917e-02

-5.000000000000000278e-02

-3.749999999999999861e-02

0.000000000000000000e+00

2.750000000000000014e-02

1.499999999999999944e-02

1.000000000000000021e-02

0.000000000000000000e+00

2.249999999999999917e-02

5.000000000000000278e-02

1.499999999999999944e-02

2.750000000000000014e-02

1.000000000000000021e-02

1.250000000000000069e-02

-2.500000000000000139e-02

-2.500000000000000139e-02

-5.000000000000000278e-02

-1.499999999999999944e-02

2.500000000000000052e-03

1.000000000000000021e-02

-2.750000000000000014e-02

-2.249999999999999917e-02

-3.250000000000000111e-02

-3.250000000000000111e-02

-3.250000000000000111e-02

-2.249999999999999917e-02

-3.250000000000000111e-02

-4.750000000000000056e-02

-5.000000000000000278e-02

-6.250000000000000000e-02

-7.000000000000000666e-02

-7.249999999999999500e-02

-7.749999999999999944e-02

-8.250000000000000389e-02

-7.000000000000000666e-02

-6.500000000000000222e-02

-5.249999999999999806e-02

-4.000000000000000083e-02

-2.750000000000000014e-02

-2.500000000000000139e-02

-1.250000000000000069e-02

-2.249999999999999917e-02

7.499999999999999722e-03

2.249999999999999917e-02

3.500000000000000333e-02

-1.499999999999999944e-02

-5.999999999999999778e-02

-9.750000000000000333e-02

-1.150000000000000050e-01

-1.275000000000000022e-01

-1.199999999999999956e-01

-1.224999999999999978e-01

-1.250000000000000000e-01

-1.250000000000000000e-01

-1.199999999999999956e-01

-1.125000000000000028e-01

-1.224999999999999978e-01

-1.250000000000000000e-01

-1.250000000000000000e-01

-1.224999999999999978e-01

-1.325000000000000067e-01

-1.224999999999999978e-01

-1.150000000000000050e-01

-1.024999999999999939e-01

-1.000000000000000056e-01

-8.500000000000000611e-02

-8.250000000000000389e-02

-4.750000000000000056e-02

2.249999999999999917e-02

1.074999999999999983e-01

2.275000000000000078e-01

4.575000000000000178e-01

7.974999999999999867e-01

1.222499999999999920e+00

1.452499999999999902e+00

1.427499999999999991e+00

1.062500000000000000e+00

3.474999999999999756e-01

-3.950000000000000178e-01

-8.824999999999999512e-01

-1.122500000000000053e+00

-1.082500000000000018e+00

-8.275000000000000133e-01

-6.025000000000000355e-01

-4.349999999999999978e-01

-3.250000000000000111e-01

-2.500000000000000000e-01

-2.074999999999999900e-01

-1.650000000000000078e-01

-1.499999999999999944e-01

-1.275000000000000022e-01

-1.100000000000000006e-01

-8.749999999999999445e-02

-8.500000000000000611e-02

-5.249999999999999806e-02

-4.000000000000000083e-02

0.000000000000000000e+00

7.499999999999999722e-03

1.000000000000000021e-02

0.000000000000000000e+00

2.500000000000000052e-03

2.500000000000000052e-03

2.500000000000000052e-03

7.499999999999999722e-03

2.249999999999999917e-02

3.749999999999999861e-02

4.499999999999999833e-02

4.750000000000000056e-02

4.750000000000000056e-02

5.000000000000000278e-02

4.750000000000000056e-02

5.000000000000000278e-02

5.000000000000000278e-02

5.750000000000000250e-02

5.000000000000000278e-02

5.249999999999999806e-02

4.000000000000000083e-02

4.750000000000000056e-02

2.500000000000000139e-02

0.000000000000000000e+00

-2.000000000000000042e-02

1.000000000000000021e-02

2.000000000000000042e-02

2.750000000000000014e-02

2.249999999999999917e-02

1.499999999999999944e-02

1.000000000000000021e-02

1.000000000000000021e-02

0.000000000000000000e+00

-2.500000000000000139e-02

-2.500000000000000139e-02

-2.000000000000000042e-02

0.000000000000000000e+00

-2.500000000000000139e-02

-2.000000000000000042e-02

-2.500000000000000139e-02

-2.249999999999999917e-02

-2.500000000000000139e-02

0.000000000000000000e+00

0.000000000000000000e+00

1.499999999999999944e-02

2.750000000000000014e-02

5.249999999999999806e-02

7.499999999999999722e-02

1.074999999999999983e-01

1.250000000000000000e-01

1.600000000000000033e-01

1.975000000000000089e-01

2.349999999999999867e-01

2.700000000000000178e-01

3.099999999999999978e-01

3.474999999999999756e-01

3.875000000000000111e-01

4.224999999999999867e-01

4.525000000000000133e-01

4.774999999999999800e-01

4.974999999999999978e-01

5.200000000000000178e-01

5.350000000000000311e-01

5.450000000000000400e-01

5.374999999999999778e-01

5.350000000000000311e-01

5.100000000000000089e-01

4.974999999999999978e-01

4.650000000000000244e-01

4.375000000000000000e-01

4.000000000000000222e-01

3.775000000000000022e-01

3.474999999999999756e-01

3.250000000000000111e-01

2.949999999999999845e-01

2.650000000000000133e-01

2.325000000000000122e-01

2.099999999999999922e-01

1.824999999999999956e-01

1.700000000000000122e-01

1.499999999999999944e-01

1.325000000000000067e-01

1.125000000000000028e-01

1.000000000000000056e-01

1.000000000000000056e-01

9.500000000000000111e-02

8.500000000000000611e-02

7.499999999999999722e-02

7.499999999999999722e-02

6.250000000000000000e-02

6.500000000000000222e-02

5.999999999999999778e-02

5.999999999999999778e-02

5.000000000000000278e-02

5.999999999999999778e-02

5.249999999999999806e-02

6.250000000000000000e-02

5.249999999999999806e-02

5.249999999999999806e-02

4.750000000000000056e-02

4.750000000000000056e-02

5.000000000000000278e-02

5.000000000000000278e-02

4.000000000000000083e-02

3.749999999999999861e-02

3.749999999999999861e-02

3.500000000000000333e-02

3.250000000000000111e-02

2.750000000000000014e-02

2.500000000000000139e-02

2.000000000000000042e-02

1.499999999999999944e-02

2.000000000000000042e-02

2.500000000000000139e-02

1.000000000000000021e-02

1.499999999999999944e-02

1.250000000000000069e-02

1.499999999999999944e-02

7.499999999999999722e-03

1.250000000000000069e-02

1.000000000000000021e-02

1.250000000000000069e-02

7.499999999999999722e-03

1.499999999999999944e-02

1.000000000000000021e-02

2.000000000000000042e-02

2.500000000000000139e-02

2.750000000000000014e-02

1.499999999999999944e-02

1.250000000000000069e-02

1.000000000000000021e-02

1.000000000000000021e-02

7.499999999999999722e-03

1.000000000000000021e-02

1.499999999999999944e-02

1.250000000000000069e-02

1.000000000000000021e-02

7.499999999999999722e-03

1.250000000000000069e-02

1.250000000000000069e-02

1.499999999999999944e-02

1.250000000000000069e-02

2.249999999999999917e-02

1.250000000000000069e-02

2.000000000000000042e-02

1.000000000000000021e-02

1.250000000000000069e-02

1.000000000000000021e-02

2.000000000000000042e-02

2.000000000000000042e-02

2.500000000000000139e-02

2.750000000000000014e-02

2.750000000000000014e-02

2.500000000000000139e-02

2.750000000000000014e-02

3.500000000000000333e-02

3.749999999999999861e-02

4.000000000000000083e-02

4.750000000000000056e-02

4.750000000000000056e-02

3.500000000000000333e-02

4.000000000000000083e-02

4.499999999999999833e-02

5.000000000000000278e-02

4.499999999999999833e-02

4.499999999999999833e-02

3.749999999999999861e-02

4.000000000000000083e-02

3.500000000000000333e-02

4.499999999999999833e-02

4.499999999999999833e-02

5.000000000000000278e-02

4.750000000000000056e-02

4.750000000000000056e-02

4.000000000000000083e-02

4.499999999999999833e-02

3.749999999999999861e-02

3.500000000000000333e-02

2.500000000000000139e-02

3.250000000000000111e-02

3.500000000000000333e-02

3.500000000000000333e-02

2.750000000000000014e-02

3.250000000000000111e-02

3.749999999999999861e-02

2.750000000000000014e-02

2.249999999999999917e-02

1.000000000000000021e-02

1.499999999999999944e-02

7.499999999999999722e-03

2.500000000000000052e-03

-2.500000000000000139e-02

-2.750000000000000014e-02

-4.750000000000000056e-02

-4.000000000000000083e-02

-4.750000000000000056e-02

-3.749999999999999861e-02

-3.749999999999999861e-02

-3.250000000000000111e-02

-2.750000000000000014e-02

2.500000000000000052e-03

1.250000000000000069e-02

2.500000000000000139e-02

3.250000000000000111e-02

3.500000000000000333e-02

4.499999999999999833e-02

5.999999999999999778e-02

6.250000000000000000e-02

4.499999999999999833e-02

0.000000000000000000e+00

-7.000000000000000666e-02

-1.000000000000000056e-01

-1.199999999999999956e-01

-1.125000000000000028e-01

-1.224999999999999978e-01

-1.150000000000000050e-01

-1.150000000000000050e-01

-1.074999999999999983e-01

-1.125000000000000028e-01

-1.000000000000000056e-01

-1.074999999999999983e-01

-1.000000000000000056e-01

-1.000000000000000056e-01

-9.750000000000000333e-02

-9.750000000000000333e-02

-8.250000000000000389e-02

-7.249999999999999500e-02

-7.000000000000000666e-02

-7.000000000000000666e-02

-5.000000000000000278e-02

-3.749999999999999861e-02

-2.500000000000000139e-02

3.250000000000000111e-02

9.500000000000000111e-02

2.000000000000000111e-01

3.724999999999999978e-01

6.824999999999999956e-01

1.112500000000000044e+00

1.489999999999999991e+00

1.572500000000000009e+00

1.362500000000000044e+00

7.099999999999999645e-01

-1.100000000000000006e-01

-7.375000000000000444e-01

-1.082500000000000018e+00

-1.165000000000000036e+00

-9.625000000000000222e-01

-7.199999999999999734e-01

-5.324999999999999734e-01

-3.975000000000000200e-01

-2.949999999999999845e-01

-2.374999999999999889e-01

-1.975000000000000089e-01

-1.700000000000000122e-01

-1.474999999999999922e-01

-1.275000000000000022e-01

-1.125000000000000028e-01

-1.024999999999999939e-01

-8.500000000000000611e-02

-4.750000000000000056e-02

-3.250000000000000111e-02

2.500000000000000052e-03

7.499999999999999722e-03

1.250000000000000069e-02

7.499999999999999722e-03

2.000000000000000042e-02

1.250000000000000069e-02

2.249999999999999917e-02

2.249999999999999917e-02

2.750000000000000014e-02

2.750000000000000014e-02

4.000000000000000083e-02

3.749999999999999861e-02

4.499999999999999833e-02

4.499999999999999833e-02

4.750000000000000056e-02

3.749999999999999861e-02

3.250000000000000111e-02

3.250000000000000111e-02

3.250000000000000111e-02

2.249999999999999917e-02

1.000000000000000021e-02

0.000000000000000000e+00

-4.499999999999999833e-02

-4.499999999999999833e-02

-3.250000000000000111e-02

0.000000000000000000e+00

2.500000000000000052e-03

7.499999999999999722e-03

-2.249999999999999917e-02

-2.000000000000000042e-02

-2.000000000000000042e-02

-1.499999999999999944e-02

-3.500000000000000333e-02

-3.749999999999999861e-02

-4.750000000000000056e-02

-3.749999999999999861e-02

-4.499999999999999833e-02

-4.750000000000000056e-02

-5.000000000000000278e-02

-3.250000000000000111e-02

-2.500000000000000139e-02

0.000000000000000000e+00

-2.500000000000000139e-02

7.499999999999999722e-03

3.500000000000000333e-02

6.250000000000000000e-02

9.750000000000000333e-02

1.250000000000000000e-01

1.575000000000000011e-01

1.900000000000000022e-01

2.374999999999999889e-01

2.750000000000000222e-01

3.150000000000000022e-01

3.449999999999999734e-01

3.850000000000000089e-01

4.124999999999999778e-01

4.575000000000000178e-01

4.749999999999999778e-01

5.074999999999999512e-01

5.250000000000000222e-01

5.474999999999999867e-01

5.574999999999999956e-01

5.574999999999999956e-01

5.350000000000000311e-01

5.124999999999999556e-01

4.824999999999999845e-01

4.575000000000000178e-01

4.274999999999999911e-01

4.025000000000000244e-01

3.724999999999999978e-01

3.350000000000000200e-01

3.024999999999999911e-01

2.750000000000000222e-01

2.575000000000000067e-01

2.200000000000000011e-01

1.875000000000000000e-01

1.625000000000000056e-01

1.575000000000000011e-01

1.375000000000000111e-01

1.375000000000000111e-01

1.199999999999999956e-01

1.100000000000000006e-01

9.750000000000000333e-02

9.750000000000000333e-02

9.500000000000000111e-02

9.500000000000000111e-02

8.749999999999999445e-02

8.500000000000000611e-02

7.499999999999999722e-02

7.749999999999999944e-02

6.250000000000000000e-02

5.249999999999999806e-02

4.750000000000000056e-02

4.750000000000000056e-02

4.750000000000000056e-02

4.750000000000000056e-02

5.000000000000000278e-02

5.000000000000000278e-02

5.750000000000000250e-02

5.750000000000000250e-02

5.750000000000000250e-02

4.750000000000000056e-02

4.750000000000000056e-02

4.000000000000000083e-02

4.750000000000000056e-02

4.499999999999999833e-02

5.000000000000000278e-02

4.750000000000000056e-02

4.750000000000000056e-02

3.749999999999999861e-02

5.249999999999999806e-02

5.999999999999999778e-02

5.999999999999999778e-02

5.249999999999999806e-02

5.750000000000000250e-02

5.000000000000000278e-02

5.000000000000000278e-02

4.750000000000000056e-02

4.750000000000000056e-02

4.499999999999999833e-02

3.749999999999999861e-02

3.500000000000000333e-02

3.749999999999999861e-02

3.749999999999999861e-02

3.500000000000000333e-02

3.749999999999999861e-02

3.500000000000000333e-02

4.499999999999999833e-02

3.500000000000000333e-02

3.749999999999999861e-02

3.250000000000000111e-02

3.749999999999999861e-02

3.749999999999999861e-02

4.750000000000000056e-02

5.000000000000000278e-02

5.999999999999999778e-02

5.249999999999999806e-02

5.249999999999999806e-02

4.750000000000000056e-02

5.750000000000000250e-02

5.750000000000000250e-02

5.750000000000000250e-02

5.249999999999999806e-02

5.000000000000000278e-02

5.000000000000000278e-02

5.249999999999999806e-02

5.750000000000000250e-02

6.250000000000000000e-02

7.000000000000000666e-02

6.500000000000000222e-02

6.500000000000000222e-02

5.249999999999999806e-02

5.249999999999999806e-02

4.499999999999999833e-02

5.750000000000000250e-02

5.999999999999999778e-02

7.000000000000000666e-02

5.000000000000000278e-02

4.750000000000000056e-02

4.499999999999999833e-02

5.750000000000000250e-02

5.999999999999999778e-02

5.999999999999999778e-02

5.750000000000000250e-02

5.999999999999999778e-02

5.999999999999999778e-02

6.500000000000000222e-02

5.999999999999999778e-02

5.999999999999999778e-02

5.999999999999999778e-02

5.999999999999999778e-02

5.999999999999999778e-02

5.999999999999999778e-02

5.999999999999999778e-02

5.750000000000000250e-02

6.250000000000000000e-02

5.999999999999999778e-02

6.250000000000000000e-02

5.750000000000000250e-02

5.249999999999999806e-02

4.750000000000000056e-02

5.249999999999999806e-02

5.000000000000000278e-02

5.750000000000000250e-02

4.750000000000000056e-02

5.249999999999999806e-02

4.000000000000000083e-02

4.499999999999999833e-02

3.500000000000000333e-02

3.500000000000000333e-02

2.750000000000000014e-02

2.249999999999999917e-02

1.000000000000000021e-02

7.499999999999999722e-03

1.000000000000000021e-02

1.000000000000000021e-02

1.250000000000000069e-02

1.250000000000000069e-02

1.499999999999999944e-02

7.499999999999999722e-03

2.500000000000000052e-03

-1.499999999999999944e-02

-1.499999999999999944e-02

-2.750000000000000014e-02

-3.250000000000000111e-02

-4.000000000000000083e-02

-2.750000000000000014e-02

-3.500000000000000333e-02

-3.500000000000000333e-02

-3.749999999999999861e-02

-2.500000000000000139e-02

-2.249999999999999917e-02

1.000000000000000021e-02

2.000000000000000042e-02

3.500000000000000333e-02

4.000000000000000083e-02

4.499999999999999833e-02

4.499999999999999833e-02

5.249999999999999806e-02

5.999999999999999778e-02

4.750000000000000056e-02

7.499999999999999722e-03

-4.750000000000000056e-02

-8.250000000000000389e-02

-1.074999999999999983e-01

-1.074999999999999983e-01

-1.074999999999999983e-01

-1.024999999999999939e-01

-1.074999999999999983e-01

-9.750000000000000333e-02

-1.024999999999999939e-01

-1.024999999999999939e-01

-1.150000000000000050e-01

-1.125000000000000028e-01

-1.125000000000000028e-01

-9.750000000000000333e-02

-9.500000000000000111e-02

-8.250000000000000389e-02

-7.749999999999999944e-02

-5.999999999999999778e-02

-5.750000000000000250e-02

-5.000000000000000278e-02

-4.499999999999999833e-02

-3.500000000000000333e-02

0.000000000000000000e+00

6.250000000000000000e-02

1.474999999999999922e-01

2.824999999999999734e-01

5.150000000000000133e-01

8.850000000000000089e-01

1.334999999999999964e+00

1.582500000000000018e+00

1.557500000000000107e+00

1.135000000000000009e+00

3.599999999999999867e-01

-4.224999999999999867e-01

-9.100000000000000311e-01

-1.162500000000000089e+00

-1.107499999999999929e+00

-8.575000000000000400e-01

-6.250000000000000000e-01

-4.575000000000000178e-01

-3.275000000000000133e-01

-2.600000000000000089e-01

-2.099999999999999922e-01

-1.724999999999999867e-01

-1.375000000000000111e-01

-1.199999999999999956e-01

-9.500000000000000111e-02

-7.249999999999999500e-02

-5.750000000000000250e-02

-2.750000000000000014e-02

7.499999999999999722e-03

3.250000000000000111e-02

4.499999999999999833e-02

5.249999999999999806e-02

5.000000000000000278e-02

5.249999999999999806e-02

4.750000000000000056e-02

5.249999999999999806e-02

5.000000000000000278e-02

6.500000000000000222e-02

6.250000000000000000e-02

7.249999999999999500e-02

7.000000000000000666e-02

7.499999999999999722e-02

7.000000000000000666e-02

6.500000000000000222e-02

5.999999999999999778e-02

5.999999999999999778e-02

6.500000000000000222e-02

7.000000000000000666e-02

7.000000000000000666e-02

7.000000000000000666e-02

7.000000000000000666e-02

4.499999999999999833e-02

1.499999999999999944e-02

2.249999999999999917e-02

2.750000000000000014e-02

3.749999999999999861e-02

5.000000000000000278e-02

5.249999999999999806e-02

5.750000000000000250e-02

3.749999999999999861e-02

3.250000000000000111e-02

2.249999999999999917e-02

2.000000000000000042e-02

1.000000000000000021e-02

2.000000000000000042e-02

1.000000000000000021e-02

7.499999999999999722e-03

2.500000000000000052e-03

1.000000000000000021e-02

1.000000000000000021e-02

2.000000000000000042e-02

2.500000000000000139e-02

4.000000000000000083e-02

4.499999999999999833e-02

6.250000000000000000e-02

8.999999999999999667e-02

1.224999999999999978e-01

1.600000000000000033e-01

1.900000000000000022e-01

2.275000000000000078e-01

2.625000000000000111e-01

3.099999999999999978e-01

3.474999999999999756e-01

3.875000000000000111e-01

4.149999999999999800e-01

4.575000000000000178e-01

4.899999999999999911e-01

5.350000000000000311e-01

5.524999999999999911e-01

5.825000000000000178e-01

5.875000000000000222e-01

5.999999999999999778e-01

6.025000000000000355e-01

5.975000000000000311e-01

5.849999999999999645e-01

5.699999999999999512e-01

5.374999999999999778e-01

5.024999999999999467e-01

4.650000000000000244e-01

4.375000000000000000e-01

4.074999999999999734e-01

3.699999999999999956e-01

3.350000000000000200e-01

2.999999999999999889e-01

2.700000000000000178e-01

2.374999999999999889e-01

2.225000000000000033e-01

2.000000000000000111e-01

1.900000000000000022e-01

1.700000000000000122e-01

1.499999999999999944e-01

1.350000000000000089e-01

1.325000000000000067e-01

1.199999999999999956e-01

1.199999999999999956e-01

1.024999999999999939e-01

1.074999999999999983e-01

1.024999999999999939e-01

1.000000000000000056e-01

8.999999999999999667e-02

9.750000000000000333e-02

8.999999999999999667e-02

8.999999999999999667e-02

9.500000000000000111e-02

9.750000000000000333e-02

9.750000000000000333e-02

8.999999999999999667e-02

7.499999999999999722e-02

7.000000000000000666e-02

7.249999999999999500e-02

7.249999999999999500e-02

7.749999999999999944e-02

7.749999999999999944e-02

7.749999999999999944e-02

7.249999999999999500e-02

8.250000000000000389e-02

7.749999999999999944e-02

8.500000000000000611e-02

8.250000000000000389e-02

8.250000000000000389e-02

7.249999999999999500e-02

7.749999999999999944e-02

7.499999999999999722e-02

7.749999999999999944e-02

8.250000000000000389e-02

8.500000000000000611e-02

7.000000000000000666e-02

7.000000000000000666e-02

5.750000000000000250e-02

5.249999999999999806e-02

5.750000000000000250e-02

5.000000000000000278e-02

4.750000000000000056e-02

4.750000000000000056e-02

5.750000000000000250e-02

5.999999999999999778e-02

6.250000000000000000e-02

5.750000000000000250e-02

5.999999999999999778e-02

4.499999999999999833e-02

5.249999999999999806e-02

5.750000000000000250e-02

7.000000000000000666e-02

5.999999999999999778e-02

5.999999999999999778e-02

5.249999999999999806e-02

5.750000000000000250e-02

5.249999999999999806e-02

5.750000000000000250e-02

5.249999999999999806e-02

6.250000000000000000e-02

6.250000000000000000e-02

5.999999999999999778e-02

5.000000000000000278e-02

5.750000000000000250e-02

6.500000000000000222e-02

6.500000000000000222e-02

6.250000000000000000e-02

5.000000000000000278e-02

5.000000000000000278e-02

4.750000000000000056e-02

5.000000000000000278e-02

4.499999999999999833e-02

5.750000000000000250e-02

5.750000000000000250e-02

7.249999999999999500e-02

7.000000000000000666e-02

7.000000000000000666e-02

6.250000000000000000e-02

7.000000000000000666e-02

6.250000000000000000e-02

7.749999999999999944e-02

7.249999999999999500e-02

5.999999999999999778e-02

5.750000000000000250e-02

6.500000000000000222e-02

6.250000000000000000e-02

6.250000000000000000e-02

5.000000000000000278e-02

4.750000000000000056e-02

5.000000000000000278e-02

5.000000000000000278e-02

5.000000000000000278e-02

4.750000000000000056e-02

5.000000000000000278e-02

4.750000000000000056e-02

5.000000000000000278e-02

5.000000000000000278e-02

6.250000000000000000e-02

5.750000000000000250e-02

5.999999999999999778e-02

5.000000000000000278e-02

5.000000000000000278e-02

3.749999999999999861e-02

4.499999999999999833e-02

3.250000000000000111e-02

2.249999999999999917e-02

2.249999999999999917e-02

3.500000000000000333e-02

2.750000000000000014e-02

3.500000000000000333e-02

3.250000000000000111e-02

2.750000000000000014e-02

2.000000000000000042e-02

2.000000000000000042e-02

2.000000000000000042e-02

1.499999999999999944e-02

2.000000000000000042e-02

1.250000000000000069e-02

1.250000000000000069e-02

2.500000000000000052e-03

0.000000000000000000e+00

0.000000000000000000e+00

2.500000000000000052e-03

2.500000000000000052e-03

1.250000000000000069e-02

1.000000000000000021e-02

2.750000000000000014e-02

2.750000000000000014e-02

4.499999999999999833e-02

5.000000000000000278e-02

7.249999999999999500e-02

7.249999999999999500e-02

5.249999999999999806e-02

7.000000000000000666e-02

9.500000000000000111e-02

1.125000000000000028e-01

8.250000000000000389e-02

1.250000000000000069e-02

-5.750000000000000250e-02

-8.749999999999999445e-02

-1.000000000000000056e-01

-1.125000000000000028e-01

-1.150000000000000050e-01

-1.199999999999999956e-01

-1.199999999999999956e-01

-1.125000000000000028e-01

-1.199999999999999956e-01

-1.375000000000000111e-01

-1.224999999999999978e-01

-8.250000000000000389e-02

-1.000000000000000056e-01

-1.024999999999999939e-01

-1.375000000000000111e-01

-1.375000000000000111e-01

-1.400000000000000133e-01

-9.500000000000000111e-02

-7.000000000000000666e-02

-5.750000000000000250e-02

-4.000000000000000083e-02

1.000000000000000021e-02

2.249999999999999917e-02

7.749999999999999944e-02

1.449999999999999900e-01

2.849999999999999756e-01

5.400000000000000355e-01

9.499999999999999556e-01

1.409999999999999920e+00

1.597499999999999920e+00

1.477500000000000036e+00

9.324999999999999956e-01

5.999999999999999778e-02

-6.724999999999999867e-01

-1.064999999999999947e+00

-1.225000000000000089e+00

-1.087499999999999911e+00

-8.325000000000000178e-01

-6.450000000000000178e-01

-4.824999999999999845e-01

-3.599999999999999867e-01

-3.074999999999999956e-01

-2.725000000000000200e-01

-2.575000000000000067e-01

-2.399999999999999911e-01

-1.975000000000000089e-01

-1.499999999999999944e-01

-1.250000000000000000e-01

-7.499999999999999722e-02

-7.000000000000000666e-02

-6.250000000000000000e-02

-6.250000000000000000e-02

-6.250000000000000000e-02

-3.749999999999999861e-02

0.000000000000000000e+00

-2.500000000000000139e-02

-2.500000000000000139e-02

-4.499999999999999833e-02

-6.500000000000000222e-02

-3.250000000000000111e-02

-2.500000000000000139e-02

0.000000000000000000e+00

-2.000000000000000042e-02

-3.250000000000000111e-02

-1.499999999999999944e-02

1.000000000000000021e-02

1.000000000000000021e-02

2.500000000000000052e-03

-4.000000000000000083e-02

-3.500000000000000333e-02

-5.000000000000000278e-02

-3.250000000000000111e-02

1.499999999999999944e-02

-3.250000000000000111e-02

-4.750000000000000056e-02

-4.499999999999999833e-02

-4.499999999999999833e-02

-6.250000000000000000e-02

-7.249999999999999500e-02

-8.749999999999999445e-02

-8.250000000000000389e-02

-7.249999999999999500e-02

-5.999999999999999778e-02

-7.749999999999999944e-02

-8.749999999999999445e-02

-9.750000000000000333e-02

-8.999999999999999667e-02

-1.100000000000000006e-01

-1.024999999999999939e-01

-1.275000000000000022e-01

-1.125000000000000028e-01

-7.000000000000000666e-02

-5.249999999999999806e-02

-7.249999999999999500e-02

-8.749999999999999445e-02

-7.499999999999999722e-02

2.500000000000000139e-02

4.750000000000000056e-02

6.500000000000000222e-02

9.750000000000000333e-02

1.224999999999999978e-01

1.275000000000000022e-01

1.875000000000000000e-01

2.625000000000000111e-01

2.974999999999999867e-01

3.850000000000000089e-01

4.324999999999999956e-01

4.274999999999999911e-01

4.149999999999999800e-01

4.099999999999999756e-01

4.375000000000000000e-01

4.874999999999999889e-01

4.974999999999999978e-01

5.200000000000000178e-01

4.974999999999999978e-01

4.949999999999999956e-01

4.949999999999999956e-01

4.450000000000000067e-01

4.249999999999999889e-01

3.875000000000000111e-01

3.250000000000000111e-01

3.074999999999999956e-01

2.725000000000000200e-01

2.500000000000000000e-01

2.025000000000000133e-01

1.375000000000000111e-01

1.275000000000000022e-01

1.024999999999999939e-01

8.250000000000000389e-02

8.250000000000000389e-02

7.249999999999999500e-02

5.750000000000000250e-02

4.750000000000000056e-02

2.500000000000000052e-03

2.249999999999999917e-02

2.500000000000000052e-03

1.000000000000000021e-02

-3.250000000000000111e-02

-5.000000000000000278e-02

-5.999999999999999778e-02

-5.249999999999999806e-02

-2.500000000000000139e-02

0.000000000000000000e+00

-5.000000000000000278e-02

-5.750000000000000250e-02

-4.750000000000000056e-02

-3.500000000000000333e-02

-4.750000000000000056e-02

-6.500000000000000222e-02

-8.250000000000000389e-02

-8.500000000000000611e-02

-7.499999999999999722e-02

-7.000000000000000666e-02

-7.249999999999999500e-02

-7.249999999999999500e-02

-7.249999999999999500e-02

-7.749999999999999944e-02

-7.499999999999999722e-02

-7.499999999999999722e-02

-6.250000000000000000e-02

-6.500000000000000222e-02

-6.250000000000000000e-02

-7.000000000000000666e-02

-5.249999999999999806e-02

-5.000000000000000278e-02

-5.000000000000000278e-02

-5.750000000000000250e-02

-5.000000000000000278e-02

-5.000000000000000278e-02

-4.000000000000000083e-02

-5.000000000000000278e-02

-4.750000000000000056e-02

-5.249999999999999806e-02

-5.000000000000000278e-02

-5.249999999999999806e-02

-5.249999999999999806e-02

-5.750000000000000250e-02

-5.249999999999999806e-02

-5.249999999999999806e-02

-5.750000000000000250e-02

-5.999999999999999778e-02

-6.500000000000000222e-02

-7.000000000000000666e-02

-6.500000000000000222e-02

-5.249999999999999806e-02

-5.999999999999999778e-02

-5.750000000000000250e-02

-6.250000000000000000e-02

-5.750000000000000250e-02

-6.250000000000000000e-02

-5.750000000000000250e-02

-6.250000000000000000e-02

-5.750000000000000250e-02

-5.249999999999999806e-02

-4.750000000000000056e-02

-4.499999999999999833e-02

-3.749999999999999861e-02

-4.750000000000000056e-02

-5.000000000000000278e-02

-5.750000000000000250e-02

-5.000000000000000278e-02

-4.000000000000000083e-02

-3.749999999999999861e-02

-3.500000000000000333e-02

-3.500000000000000333e-02

-3.250000000000000111e-02

-4.000000000000000083e-02

-4.000000000000000083e-02

-4.750000000000000056e-02

-4.499999999999999833e-02

-5.249999999999999806e-02

-5.000000000000000278e-02

-5.000000000000000278e-02

-4.000000000000000083e-02

-5.000000000000000278e-02

-5.000000000000000278e-02

-5.750000000000000250e-02

-4.499999999999999833e-02

-4.499999999999999833e-02

-4.750000000000000056e-02

-5.000000000000000278e-02

-4.499999999999999833e-02

-4.499999999999999833e-02

-4.499999999999999833e-02

-4.750000000000000056e-02

-4.000000000000000083e-02

-3.500000000000000333e-02

-3.500000000000000333e-02

-4.000000000000000083e-02

-4.499999999999999833e-02

-4.000000000000000083e-02

-4.000000000000000083e-02

-3.250000000000000111e-02

-4.000000000000000083e-02

-3.749999999999999861e-02

-5.000000000000000278e-02

-4.750000000000000056e-02

-5.000000000000000278e-02

-4.499999999999999833e-02

-5.000000000000000278e-02

-4.750000000000000056e-02

-5.750000000000000250e-02

-5.999999999999999778e-02

-5.750000000000000250e-02

-5.000000000000000278e-02

-5.750000000000000250e-02

-5.000000000000000278e-02

-5.000000000000000278e-02

-5.000000000000000278e-02

-4.750000000000000056e-02

-3.749999999999999861e-02

-2.750000000000000014e-02

-2.500000000000000139e-02

-2.750000000000000014e-02

-2.750000000000000014e-02

-2.249999999999999917e-02

-2.750000000000000014e-02

-3.500000000000000333e-02

-4.499999999999999833e-02

-5.000000000000000278e-02

-6.250000000000000000e-02

-5.750000000000000250e-02

-5.999999999999999778e-02

-5.750000000000000250e-02

-7.000000000000000666e-02

-7.000000000000000666e-02

-7.000000000000000666e-02

-5.750000000000000250e-02

-4.000000000000000083e-02

-2.750000000000000014e-02

-2.249999999999999917e-02

0.000000000000000000e+00

7.499999999999999722e-03

2.249999999999999917e-02

2.000000000000000042e-02

0.000000000000000000e+00

-6.250000000000000000e-02

-1.074999999999999983e-01

-1.275000000000000022e-01

-1.350000000000000089e-01

-1.250000000000000000e-01

-1.325000000000000067e-01

-1.275000000000000022e-01

-1.325000000000000067e-01

-1.150000000000000050e-01

-1.150000000000000050e-01

-1.024999999999999939e-01

-1.000000000000000056e-01

-9.500000000000000111e-02

-1.000000000000000056e-01

-9.500000000000000111e-02

-9.500000000000000111e-02

-8.250000000000000389e-02

-7.499999999999999722e-02

-7.249999999999999500e-02

-7.499999999999999722e-02

-6.250000000000000000e-02

-5.249999999999999806e-02

-4.499999999999999833e-02

-2.249999999999999917e-02

2.249999999999999917e-02

7.749999999999999944e-02

1.824999999999999956e-01

3.624999999999999889e-01

6.574999999999999734e-01

9.499999999999999556e-01

1.094999999999999973e+00

1.014999999999999902e+00

6.374999999999999556e-01

8.500000000000000611e-02

-4.025000000000000244e-01

-6.824999999999999956e-01

-7.900000000000000355e-01

-6.999999999999999556e-01

-5.400000000000000355e-01

-4.000000000000000222e-01

-2.999999999999999889e-01

-2.225000000000000033e-01

-1.849999999999999978e-01

-1.575000000000000011e-01

-1.350000000000000089e-01

-1.199999999999999956e-01

-1.125000000000000028e-01

-1.024999999999999939e-01

-9.750000000000000333e-02

-8.250000000000000389e-02

-6.250000000000000000e-02

-5.000000000000000278e-02

-3.250000000000000111e-02

-2.000000000000000042e-02

2.500000000000000052e-03

-2.000000000000000042e-02

0.000000000000000000e+00

2.500000000000000052e-03

1.499999999999999944e-02

1.250000000000000069e-02

1.499999999999999944e-02

1.499999999999999944e-02

2.249999999999999917e-02

2.000000000000000042e-02

2.500000000000000139e-02

2.500000000000000139e-02

4.000000000000000083e-02

3.749999999999999861e-02

2.750000000000000014e-02

1.499999999999999944e-02

2.000000000000000042e-02

2.249999999999999917e-02

2.000000000000000042e-02

2.000000000000000042e-02

2.249999999999999917e-02

-2.750000000000000014e-02

-5.000000000000000278e-02

-4.000000000000000083e-02

-3.500000000000000333e-02

2.500000000000000052e-03

1.000000000000000021e-02

1.250000000000000069e-02

1.000000000000000021e-02

1.499999999999999944e-02

1.000000000000000021e-02

1.250000000000000069e-02

2.500000000000000052e-03

1.499999999999999944e-02

2.500000000000000139e-02

3.250000000000000111e-02

2.500000000000000139e-02

2.750000000000000014e-02

3.500000000000000333e-02

4.000000000000000083e-02

3.500000000000000333e-02

4.499999999999999833e-02

5.750000000000000250e-02

7.499999999999999722e-02

8.999999999999999667e-02

1.150000000000000050e-01

1.400000000000000133e-01

1.600000000000000033e-01

1.849999999999999978e-01

2.149999999999999967e-01

2.474999999999999978e-01

2.750000000000000222e-01

3.150000000000000022e-01

3.474999999999999756e-01

3.775000000000000022e-01

3.900000000000000133e-01

4.199999999999999845e-01

4.375000000000000000e-01

4.650000000000000244e-01

4.724999999999999756e-01

4.774999999999999800e-01

4.650000000000000244e-01

4.625000000000000222e-01

4.500000000000000111e-01

4.349999999999999978e-01

4.074999999999999734e-01

3.775000000000000022e-01

3.474999999999999756e-01

3.225000000000000089e-01

2.874999999999999778e-01

2.600000000000000089e-01

2.374999999999999889e-01

2.099999999999999922e-01

1.950000000000000067e-01

1.774999999999999911e-01

1.700000000000000122e-01

1.474999999999999922e-01

1.325000000000000067e-01

1.224999999999999978e-01

1.224999999999999978e-01

1.125000000000000028e-01

1.199999999999999956e-01

1.100000000000000006e-01

1.100000000000000006e-01

9.750000000000000333e-02

8.999999999999999667e-02

7.249999999999999500e-02

7.499999999999999722e-02

7.249999999999999500e-02

7.249999999999999500e-02

5.999999999999999778e-02

5.999999999999999778e-02

5.750000000000000250e-02

5.750000000000000250e-02

5.000000000000000278e-02

4.750000000000000056e-02

4.750000000000000056e-02

4.499999999999999833e-02

3.749999999999999861e-02

2.750000000000000014e-02

3.749999999999999861e-02

2.750000000000000014e-02

2.249999999999999917e-02

1.499999999999999944e-02

2.000000000000000042e-02

1.000000000000000021e-02

2.500000000000000139e-02

2.750000000000000014e-02

3.500000000000000333e-02

2.249999999999999917e-02

2.249999999999999917e-02

2.000000000000000042e-02

2.249999999999999917e-02

2.000000000000000042e-02

2.000000000000000042e-02

2.500000000000000052e-03

7.499999999999999722e-03

7.499999999999999722e-03

1.000000000000000021e-02

2.500000000000000052e-03

2.500000000000000052e-03

0.000000000000000000e+00

0.000000000000000000e+00

0.000000000000000000e+00

2.500000000000000052e-03

2.000000000000000042e-02

1.250000000000000069e-02

1.499999999999999944e-02

1.499999999999999944e-02

2.500000000000000139e-02

2.249999999999999917e-02

2.750000000000000014e-02

2.500000000000000139e-02

3.749999999999999861e-02

3.250000000000000111e-02

4.000000000000000083e-02

3.250000000000000111e-02

3.500000000000000333e-02

2.750000000000000014e-02

3.250000000000000111e-02

2.750000000000000014e-02

3.749999999999999861e-02

3.749999999999999861e-02

4.499999999999999833e-02

4.499999999999999833e-02

4.750000000000000056e-02

5.249999999999999806e-02

4.750000000000000056e-02

4.000000000000000083e-02

3.250000000000000111e-02

2.500000000000000139e-02

2.249999999999999917e-02

2.750000000000000014e-02

2.500000000000000139e-02

3.500000000000000333e-02

2.750000000000000014e-02

3.250000000000000111e-02

2.000000000000000042e-02

2.249999999999999917e-02

1.499999999999999944e-02

2.000000000000000042e-02

1.250000000000000069e-02

2.249999999999999917e-02

2.000000000000000042e-02

2.500000000000000139e-02

2.249999999999999917e-02

3.250000000000000111e-02

3.749999999999999861e-02

4.499999999999999833e-02

4.499999999999999833e-02

4.750000000000000056e-02

5.249999999999999806e-02

5.000000000000000278e-02

4.750000000000000056e-02

4.499999999999999833e-02

4.750000000000000056e-02

4.499999999999999833e-02

5.000000000000000278e-02

5.249999999999999806e-02

6.250000000000000000e-02

5.999999999999999778e-02

7.000000000000000666e-02

6.250000000000000000e-02

7.000000000000000666e-02

5.999999999999999778e-02

6.500000000000000222e-02

5.999999999999999778e-02

6.250000000000000000e-02

5.750000000000000250e-02

5.249999999999999806e-02

4.499999999999999833e-02

4.750000000000000056e-02

4.750000000000000056e-02

5.249999999999999806e-02

5.999999999999999778e-02

5.999999999999999778e-02

5.750000000000000250e-02

5.249999999999999806e-02

5.750000000000000250e-02

5.999999999999999778e-02

7.000000000000000666e-02

6.250000000000000000e-02

6.250000000000000000e-02

5.999999999999999778e-02

6.250000000000000000e-02

5.750000000000000250e-02

5.750000000000000250e-02

4.750000000000000056e-02

5.249999999999999806e-02

5.249999999999999806e-02

5.750000000000000250e-02

4.000000000000000083e-02

4.000000000000000083e-02

2.750000000000000014e-02

2.249999999999999917e-02

1.499999999999999944e-02

1.499999999999999944e-02

1.250000000000000069e-02

1.250000000000000069e-02

1.250000000000000069e-02

2.249999999999999917e-02

4.000000000000000083e-02

5.249999999999999806e-02

7.249999999999999500e-02

8.500000000000000611e-02

8.749999999999999445e-02

8.749999999999999445e-02

1.000000000000000056e-01

1.000000000000000056e-01

8.500000000000000611e-02

2.500000000000000139e-02

-2.500000000000000139e-02

-6.250000000000000000e-02

-7.249999999999999500e-02

-8.250000000000000389e-02

-7.749999999999999944e-02

-8.749999999999999445e-02

-8.250000000000000389e-02

-7.749999999999999944e-02

-7.749999999999999944e-02

-8.749999999999999445e-02

-8.749999999999999445e-02

-8.250000000000000389e-02

-7.499999999999999722e-02

-7.249999999999999500e-02

-7.000000000000000666e-02

-6.250000000000000000e-02

-7.000000000000000666e-02

-6.500000000000000222e-02

-5.249999999999999806e-02

-2.750000000000000014e-02

-2.249999999999999917e-02

2.500000000000000052e-03

2.249999999999999917e-02

7.499999999999999722e-02

1.375000000000000111e-01

2.625000000000000111e-01

4.724999999999999756e-01

8.225000000000000089e-01

1.227500000000000036e+00

1.459999999999999964e+00

1.402500000000000080e+00

1.020000000000000018e+00

3.074999999999999956e-01

-3.875000000000000111e-01

-8.449999999999999734e-01

-1.070000000000000062e+00

-1.032499999999999973e+00

-8.024999999999999911e-01

-5.899999999999999689e-01

-4.199999999999999845e-01

-2.949999999999999845e-01

-2.225000000000000033e-01

-1.824999999999999956e-01

-1.474999999999999922e-01

-1.199999999999999956e-01

-1.100000000000000006e-01

-8.999999999999999667e-02

-7.749999999999999944e-02

-5.999999999999999778e-02

-3.500000000000000333e-02

2.249999999999999917e-02

4.750000000000000056e-02

7.000000000000000666e-02

6.250000000000000000e-02

5.249999999999999806e-02

3.749999999999999861e-02

4.499999999999999833e-02

4.000000000000000083e-02

4.000000000000000083e-02

3.250000000000000111e-02

4.000000000000000083e-02

4.750000000000000056e-02

4.750000000000000056e-02

4.750000000000000056e-02

5.249999999999999806e-02

5.999999999999999778e-02

5.999999999999999778e-02

6.500000000000000222e-02

5.999999999999999778e-02

5.249999999999999806e-02

3.749999999999999861e-02

3.500000000000000333e-02

4.000000000000000083e-02

3.749999999999999861e-02

-1.499999999999999944e-02

7.499999999999999722e-03

1.000000000000000021e-02

2.249999999999999917e-02

3.250000000000000111e-02

3.749999999999999861e-02

2.000000000000000042e-02

2.000000000000000042e-02

2.000000000000000042e-02

1.000000000000000021e-02

-2.249999999999999917e-02

-2.500000000000000139e-02

-2.000000000000000042e-02

-1.250000000000000069e-02

-2.500000000000000139e-02

-2.500000000000000139e-02

-1.499999999999999944e-02

-2.000000000000000042e-02

-1.499999999999999944e-02

1.000000000000000021e-02

2.750000000000000014e-02

4.499999999999999833e-02

5.999999999999999778e-02

7.249999999999999500e-02

1.074999999999999983e-01

1.275000000000000022e-01

1.700000000000000122e-01

2.000000000000000111e-01

2.399999999999999911e-01

2.750000000000000222e-01

3.250000000000000111e-01

3.599999999999999867e-01

4.074999999999999734e-01

4.450000000000000067e-01

4.724999999999999756e-01

4.874999999999999889e-01

5.100000000000000089e-01

5.250000000000000222e-01

5.450000000000000400e-01

5.474999999999999867e-01

5.574999999999999956e-01

5.500000000000000444e-01

5.324999999999999734e-01

5.124999999999999556e-01

4.874999999999999889e-01

4.575000000000000178e-01

4.149999999999999800e-01

3.850000000000000089e-01

3.499999999999999778e-01

3.250000000000000111e-01

2.874999999999999778e-01

2.625000000000000111e-01

2.349999999999999867e-01

2.200000000000000011e-01

1.875000000000000000e-01

1.749999999999999889e-01

1.600000000000000033e-01

1.400000000000000133e-01

1.275000000000000022e-01

1.199999999999999956e-01

1.074999999999999983e-01

1.000000000000000056e-01

9.750000000000000333e-02

8.749999999999999445e-02

7.499999999999999722e-02

8.250000000000000389e-02

8.500000000000000611e-02

7.749999999999999944e-02

7.249999999999999500e-02

7.000000000000000666e-02

7.249999999999999500e-02

5.999999999999999778e-02

5.999999999999999778e-02

5.999999999999999778e-02

7.000000000000000666e-02

5.249999999999999806e-02

5.249999999999999806e-02

4.499999999999999833e-02

4.750000000000000056e-02

4.499999999999999833e-02

5.000000000000000278e-02

4.499999999999999833e-02

4.499999999999999833e-02

4.499999999999999833e-02

4.499999999999999833e-02

3.500000000000000333e-02

3.500000000000000333e-02

3.250000000000000111e-02

2.750000000000000014e-02

1.499999999999999944e-02

1.250000000000000069e-02

1.000000000000000021e-02

1.250000000000000069e-02

1.250000000000000069e-02

7.499999999999999722e-03

7.499999999999999722e-03

2.500000000000000052e-03

1.250000000000000069e-02

1.250000000000000069e-02

2.000000000000000042e-02

1.250000000000000069e-02

1.499999999999999944e-02

2.249999999999999917e-02

3.250000000000000111e-02

2.750000000000000014e-02

3.500000000000000333e-02

2.750000000000000014e-02

3.250000000000000111e-02

3.250000000000000111e-02

3.500000000000000333e-02

2.750000000000000014e-02

3.500000000000000333e-02

4.000000000000000083e-02

4.499999999999999833e-02

3.749999999999999861e-02

3.749999999999999861e-02

4.000000000000000083e-02

4.499999999999999833e-02

5.249999999999999806e-02

5.750000000000000250e-02

5.999999999999999778e-02

5.000000000000000278e-02

5.000000000000000278e-02

4.000000000000000083e-02

4.499999999999999833e-02

3.500000000000000333e-02

3.749999999999999861e-02

3.500000000000000333e-02

4.499999999999999833e-02

3.749999999999999861e-02

4.000000000000000083e-02

3.749999999999999861e-02

4.750000000000000056e-02

4.499999999999999833e-02

4.000000000000000083e-02

2.750000000000000014e-02

2.750000000000000014e-02

2.500000000000000139e-02

2.750000000000000014e-02

2.249999999999999917e-02

2.500000000000000139e-02

2.750000000000000014e-02

2.750000000000000014e-02

3.749999999999999861e-02

4.499999999999999833e-02

4.750000000000000056e-02

4.000000000000000083e-02

4.750000000000000056e-02

4.750000000000000056e-02

5.249999999999999806e-02

4.499999999999999833e-02

4.750000000000000056e-02

3.749999999999999861e-02

4.499999999999999833e-02

4.499999999999999833e-02

4.000000000000000083e-02

3.250000000000000111e-02

3.500000000000000333e-02

3.250000000000000111e-02

3.250000000000000111e-02

2.750000000000000014e-02

4.000000000000000083e-02

4.499999999999999833e-02

4.499999999999999833e-02

3.500000000000000333e-02

2.500000000000000139e-02

2.249999999999999917e-02

2.249999999999999917e-02

2.249999999999999917e-02

2.249999999999999917e-02

2.750000000000000014e-02

1.250000000000000069e-02

2.000000000000000042e-02

2.249999999999999917e-02

2.750000000000000014e-02

3.500000000000000333e-02

4.750000000000000056e-02

4.750000000000000056e-02

5.000000000000000278e-02

5.249999999999999806e-02

5.999999999999999778e-02

5.000000000000000278e-02

5.750000000000000250e-02

5.249999999999999806e-02

5.249999999999999806e-02

4.750000000000000056e-02

5.249999999999999806e-02

5.249999999999999806e-02

5.249999999999999806e-02

5.000000000000000278e-02

5.999999999999999778e-02

7.000000000000000666e-02

6.250000000000000000e-02

7.000000000000000666e-02

7.000000000000000666e-02

7.000000000000000666e-02

5.000000000000000278e-02

5.000000000000000278e-02

4.499999999999999833e-02

5.249999999999999806e-02

4.750000000000000056e-02

5.249999999999999806e-02

4.499999999999999833e-02

4.750000000000000056e-02

3.749999999999999861e-02

4.750000000000000056e-02

3.749999999999999861e-02

4.000000000000000083e-02

3.749999999999999861e-02

4.499999999999999833e-02

4.499999999999999833e-02

4.750000000000000056e-02

4.750000000000000056e-02

4.750000000000000056e-02

4.499999999999999833e-02

3.749999999999999861e-02

3.250000000000000111e-02

2.000000000000000042e-02

1.250000000000000069e-02

2.500000000000000052e-03

2.500000000000000052e-03

0.000000000000000000e+00

1.250000000000000069e-02

2.000000000000000042e-02

3.500000000000000333e-02

3.749999999999999861e-02

4.750000000000000056e-02

4.750000000000000056e-02

5.750000000000000250e-02

5.249999999999999806e-02

7.000000000000000666e-02

7.749999999999999944e-02

9.500000000000000111e-02

7.499999999999999722e-02

3.250000000000000111e-02

-3.500000000000000333e-02

-5.999999999999999778e-02

-6.500000000000000222e-02

-6.250000000000000000e-02

-6.250000000000000000e-02

-6.500000000000000222e-02

-7.000000000000000666e-02

-6.500000000000000222e-02

-6.250000000000000000e-02

-6.500000000000000222e-02

-6.250000000000000000e-02

-6.500000000000000222e-02

-5.999999999999999778e-02

-5.000000000000000278e-02

-3.749999999999999861e-02

0.000000000000000000e+00

7.000000000000000666e-02

1.400000000000000133e-01

2.625000000000000111e-01

4.600000000000000200e-01

7.974999999999999867e-01

1.209999999999999964e+00

1.500000000000000000e+00

1.500000000000000000e+00

1.182500000000000107e+00

4.699999999999999734e-01

-2.999999999999999889e-01

-8.325000000000000178e-01

-1.122500000000000053e+00

-1.139999999999999902e+00

-9.074999999999999734e-01

-6.750000000000000444e-01

-5.024999999999999467e-01

-3.624999999999999889e-01

-2.750000000000000222e-01

-2.149999999999999967e-01

-1.900000000000000022e-01

-1.524999999999999967e-01

-1.325000000000000067e-01

-1.000000000000000056e-01

-8.250000000000000389e-02

-5.750000000000000250e-02

-4.499999999999999833e-02

0.000000000000000000e+00

1.000000000000000021e-02

2.249999999999999917e-02

2.249999999999999917e-02

3.500000000000000333e-02

3.250000000000000111e-02

3.500000000000000333e-02

3.500000000000000333e-02

3.749999999999999861e-02

4.750000000000000056e-02

5.999999999999999778e-02

6.250000000000000000e-02

6.500000000000000222e-02

7.000000000000000666e-02

6.500000000000000222e-02

7.249999999999999500e-02

7.000000000000000666e-02

7.249999999999999500e-02

7.249999999999999500e-02

8.500000000000000611e-02

7.499999999999999722e-02

7.749999999999999944e-02

7.000000000000000666e-02

6.500000000000000222e-02

2.249999999999999917e-02

2.750000000000000014e-02

3.250000000000000111e-02

4.000000000000000083e-02

3.749999999999999861e-02

3.749999999999999861e-02

2.500000000000000139e-02

2.750000000000000014e-02

2.750000000000000014e-02

3.250000000000000111e-02

2.000000000000000042e-02

1.000000000000000021e-02

1.499999999999999944e-02

2.500000000000000139e-02

3.250000000000000111e-02

2.750000000000000014e-02

2.500000000000000139e-02

2.500000000000000139e-02

3.749999999999999861e-02

3.749999999999999861e-02

5.000000000000000278e-02

6.500000000000000222e-02

8.500000000000000611e-02

9.500000000000000111e-02

1.199999999999999956e-01

1.474999999999999922e-01

1.824999999999999956e-01

2.099999999999999922e-01

2.600000000000000089e-01

2.999999999999999889e-01

3.499999999999999778e-01

3.825000000000000067e-01

4.199999999999999845e-01

4.475000000000000089e-01

4.849999999999999867e-01

5.224999999999999645e-01

5.524999999999999911e-01

5.725000000000000089e-01

5.949999999999999734e-01

6.099999999999999867e-01

6.099999999999999867e-01

6.099999999999999867e-01

5.975000000000000311e-01

5.849999999999999645e-01

5.574999999999999956e-01

5.324999999999999734e-01

4.949999999999999956e-01

4.600000000000000200e-01

4.199999999999999845e-01

3.825000000000000067e-01

3.474999999999999756e-01

3.150000000000000022e-01

2.725000000000000200e-01

2.474999999999999978e-01

2.025000000000000133e-01

1.875000000000000000e-01

1.724999999999999867e-01

1.600000000000000033e-01

1.250000000000000000e-01

1.100000000000000006e-01

9.750000000000000333e-02

9.500000000000000111e-02

8.500000000000000611e-02

7.499999999999999722e-02

7.499999999999999722e-02

7.000000000000000666e-02

7.000000000000000666e-02

6.500000000000000222e-02

7.000000000000000666e-02

5.999999999999999778e-02

5.999999999999999778e-02

5.000000000000000278e-02

5.249999999999999806e-02

4.750000000000000056e-02

5.249999999999999806e-02

4.750000000000000056e-02

4.750000000000000056e-02

3.749999999999999861e-02

4.499999999999999833e-02

4.000000000000000083e-02

4.000000000000000083e-02

2.500000000000000139e-02

2.249999999999999917e-02

2.000000000000000042e-02

2.500000000000000139e-02

2.750000000000000014e-02

2.500000000000000139e-02

2.000000000000000042e-02

1.250000000000000069e-02

2.500000000000000139e-02

2.000000000000000042e-02

2.500000000000000139e-02

2.000000000000000042e-02

2.249999999999999917e-02

2.249999999999999917e-02

3.250000000000000111e-02

5.999999999999999778e-02

6.500000000000000222e-02

3.749999999999999861e-02

3.749999999999999861e-02

2.500000000000000139e-02

1.499999999999999944e-02

2.000000000000000042e-02

1.000000000000000021e-02

2.500000000000000052e-03

2.249999999999999917e-02

2.750000000000000014e-02

2.750000000000000014e-02

2.249999999999999917e-02

2.249999999999999917e-02

3.749999999999999861e-02

2.249999999999999917e-02

7.499999999999999722e-03

-2.000000000000000042e-02

2.500000000000000052e-03

2.000000000000000042e-02

5.000000000000000278e-02

5.249999999999999806e-02

5.249999999999999806e-02

4.499999999999999833e-02

2.249999999999999917e-02

2.500000000000000139e-02

4.750000000000000056e-02

4.499999999999999833e-02

2.249999999999999917e-02

4.000000000000000083e-02

3.749999999999999861e-02

4.499999999999999833e-02

5.249999999999999806e-02

2.500000000000000139e-02

5.000000000000000278e-02

1.499999999999999944e-02

1.499999999999999944e-02

2.750000000000000014e-02

4.499999999999999833e-02

3.749999999999999861e-02

7.249999999999999500e-02

5.000000000000000278e-02

2.750000000000000014e-02

1.000000000000000021e-02

7.499999999999999722e-03

-3.500000000000000333e-02

1.000000000000000021e-02

3.250000000000000111e-02

5.999999999999999778e-02

7.749999999999999944e-02

7.249999999999999500e-02

6.500000000000000222e-02

2.500000000000000139e-02

2.750000000000000014e-02

4.499999999999999833e-02

2.750000000000000014e-02

4.750000000000000056e-02

5.249999999999999806e-02

0.000000000000000000e+00

-2.500000000000000139e-02

-3.250000000000000111e-02

1.250000000000000069e-02

2.750000000000000014e-02

2.750000000000000014e-02

0.000000000000000000e+00

-2.750000000000000014e-02

7.499999999999999722e-03

1.499999999999999944e-02

3.749999999999999861e-02

7.499999999999999722e-03

-2.750000000000000014e-02

0.000000000000000000e+00

2.000000000000000042e-02

1.000000000000000021e-02

2.500000000000000139e-02

3.250000000000000111e-02

4.750000000000000056e-02

4.750000000000000056e-02

4.750000000000000056e-02

0.000000000000000000e+00

-3.500000000000000333e-02

-4.000000000000000083e-02

-2.500000000000000139e-02

0.000000000000000000e+00

7.499999999999999722e-03

-2.750000000000000014e-02

-2.000000000000000042e-02

2.750000000000000014e-02

5.999999999999999778e-02

5.249999999999999806e-02

4.750000000000000056e-02

1.250000000000000069e-02

2.500000000000000052e-03

2.249999999999999917e-02

0.000000000000000000e+00

0.000000000000000000e+00

2.249999999999999917e-02

0.000000000000000000e+00

0.000000000000000000e+00

2.500000000000000139e-02

7.499999999999999722e-03

1.250000000000000069e-02

2.000000000000000042e-02

4.499999999999999833e-02

7.499999999999999722e-03

1.000000000000000021e-02

-2.750000000000000014e-02

-5.000000000000000278e-02

-5.249999999999999806e-02

-5.000000000000000278e-02

-5.000000000000000278e-02

-5.000000000000000278e-02

-1.000000000000000056e-01

-1.250000000000000000e-01

-1.000000000000000056e-01

-5.999999999999999778e-02

-6.250000000000000000e-02

-1.125000000000000028e-01

-1.150000000000000050e-01

-1.125000000000000028e-01

-1.400000000000000133e-01

-1.250000000000000000e-01

-1.224999999999999978e-01

-1.250000000000000000e-01

-9.750000000000000333e-02

-9.500000000000000111e-02

-9.500000000000000111e-02

-1.375000000000000111e-01

-1.125000000000000028e-01

-1.199999999999999956e-01

-1.150000000000000050e-01

-1.400000000000000133e-01

-1.125000000000000028e-01

-7.499999999999999722e-02

-2.500000000000000139e-02

-5.249999999999999806e-02

-3.749999999999999861e-02

-3.749999999999999861e-02

-5.249999999999999806e-02

-6.250000000000000000e-02

-8.999999999999999667e-02

-1.400000000000000133e-01

-1.600000000000000033e-01

-1.474999999999999922e-01

-1.824999999999999956e-01

-1.724999999999999867e-01

-1.575000000000000011e-01

-1.724999999999999867e-01

-1.650000000000000078e-01

-1.524999999999999967e-01

-1.575000000000000011e-01

-1.474999999999999922e-01

-1.499999999999999944e-01

-1.400000000000000133e-01

-1.400000000000000133e-01

-1.100000000000000006e-01

-1.100000000000000006e-01

-8.500000000000000611e-02

-4.000000000000000083e-02

5.999999999999999778e-02

2.449999999999999956e-01

5.150000000000000133e-01

8.874999999999999556e-01

1.237500000000000044e+00

1.324999999999999956e+00

1.100000000000000089e+00

5.600000000000000533e-01

-1.575000000000000011e-01

-7.275000000000000355e-01

-1.074999999999999956e+00

-1.165000000000000036e+00

-1.002499999999999947e+00

-7.399999999999999911e-01

-5.450000000000000400e-01

-4.000000000000000222e-01

-3.150000000000000022e-01

-2.525000000000000022e-01

-2.099999999999999922e-01

-1.600000000000000033e-01

-1.524999999999999967e-01

-1.600000000000000033e-01

-1.350000000000000089e-01

-1.000000000000000056e-01

-8.250000000000000389e-02

-3.749999999999999861e-02

-2.000000000000000042e-02

1.250000000000000069e-02

2.000000000000000042e-02

2.249999999999999917e-02

2.000000000000000042e-02

1.499999999999999944e-02

1.499999999999999944e-02

2.249999999999999917e-02

3.250000000000000111e-02

3.749999999999999861e-02

4.499999999999999833e-02

4.499999999999999833e-02

4.499999999999999833e-02

3.500000000000000333e-02

4.499999999999999833e-02

4.000000000000000083e-02

3.749999999999999861e-02

2.500000000000000139e-02

3.250000000000000111e-02

3.250000000000000111e-02

2.500000000000000139e-02

1.499999999999999944e-02

2.000000000000000042e-02

-3.250000000000000111e-02

-4.750000000000000056e-02

-4.000000000000000083e-02

-3.250000000000000111e-02

-3.250000000000000111e-02

-2.249999999999999917e-02

-2.750000000000000014e-02

-3.749999999999999861e-02

-3.500000000000000333e-02

-2.500000000000000139e-02

-2.750000000000000014e-02

-4.499999999999999833e-02

-3.749999999999999861e-02

-3.500000000000000333e-02

-2.500000000000000139e-02

-3.749999999999999861e-02

-3.250000000000000111e-02

-2.750000000000000014e-02

0.000000000000000000e+00

0.000000000000000000e+00

2.000000000000000042e-02

2.000000000000000042e-02

3.749999999999999861e-02

4.750000000000000056e-02

7.000000000000000666e-02

8.500000000000000611e-02

1.150000000000000050e-01

1.449999999999999900e-01

1.774999999999999911e-01

2.025000000000000133e-01

2.374999999999999889e-01

2.700000000000000178e-01

2.974999999999999867e-01

3.225000000000000089e-01

3.474999999999999756e-01

3.750000000000000000e-01

3.900000000000000133e-01

4.099999999999999756e-01

4.124999999999999778e-01

4.199999999999999845e-01

4.124999999999999778e-01

4.199999999999999845e-01

4.099999999999999756e-01

4.025000000000000244e-01

3.775000000000000022e-01

3.649999999999999911e-01

3.375000000000000222e-01

3.099999999999999978e-01

2.750000000000000222e-01

2.474999999999999978e-01

2.124999999999999944e-01

1.975000000000000089e-01

1.724999999999999867e-01

1.499999999999999944e-01

1.224999999999999978e-01

1.100000000000000006e-01

9.500000000000000111e-02

7.749999999999999944e-02

6.500000000000000222e-02

5.999999999999999778e-02

5.999999999999999778e-02

5.999999999999999778e-02

5.999999999999999778e-02

5.000000000000000278e-02

5.249999999999999806e-02

4.499999999999999833e-02

3.749999999999999861e-02

2.750000000000000014e-02

2.750000000000000014e-02

2.000000000000000042e-02

2.000000000000000042e-02

1.000000000000000021e-02

1.000000000000000021e-02

-1.499999999999999944e-02

-2.249999999999999917e-02

-2.750000000000000014e-02

-2.249999999999999917e-02

-2.750000000000000014e-02

-3.250000000000000111e-02

-4.000000000000000083e-02

-3.749999999999999861e-02

-3.749999999999999861e-02

-4.499999999999999833e-02

-4.750000000000000056e-02

-5.000000000000000278e-02

-5.000000000000000278e-02

-5.249999999999999806e-02

-5.750000000000000250e-02

-5.999999999999999778e-02

-5.999999999999999778e-02

-7.000000000000000666e-02

-6.500000000000000222e-02

-6.250000000000000000e-02

-5.249999999999999806e-02

-6.250000000000000000e-02

-5.000000000000000278e-02

-5.000000000000000278e-02

-4.000000000000000083e-02

-3.749999999999999861e-02

-2.500000000000000139e-02

-2.750000000000000014e-02

-2.000000000000000042e-02

-2.249999999999999917e-02

-2.249999999999999917e-02

-2.750000000000000014e-02

-2.750000000000000014e-02

-2.750000000000000014e-02

-3.500000000000000333e-02

-3.749999999999999861e-02

-4.000000000000000083e-02

-3.749999999999999861e-02

-3.749999999999999861e-02

-2.750000000000000014e-02

-2.750000000000000014e-02

-2.249999999999999917e-02

-2.750000000000000014e-02

-2.249999999999999917e-02

-2.000000000000000042e-02

-1.499999999999999944e-02

-2.249999999999999917e-02

-2.000000000000000042e-02

-2.750000000000000014e-02

-2.249999999999999917e-02

-2.249999999999999917e-02

-1.499999999999999944e-02

-2.249999999999999917e-02

-1.250000000000000069e-02

2.500000000000000052e-03

2.500000000000000052e-03

-2.000000000000000042e-02

-1.250000000000000069e-02

2.500000000000000052e-03

1.000000000000000021e-02

1.499999999999999944e-02

1.499999999999999944e-02

1.250000000000000069e-02

1.000000000000000021e-02

1.000000000000000021e-02

7.499999999999999722e-03

1.250000000000000069e-02

1.499999999999999944e-02

2.249999999999999917e-02

2.249999999999999917e-02

2.500000000000000139e-02

2.000000000000000042e-02

2.249999999999999917e-02

1.499999999999999944e-02

2.750000000000000014e-02

2.249999999999999917e-02

1.000000000000000021e-02

2.500000000000000052e-03

2.000000000000000042e-02

2.249999999999999917e-02

2.500000000000000139e-02

2.500000000000000139e-02

4.000000000000000083e-02

4.499999999999999833e-02

3.749999999999999861e-02

4.499999999999999833e-02

4.750000000000000056e-02

5.249999999999999806e-02

4.750000000000000056e-02

6.500000000000000222e-02

7.000000000000000666e-02

7.249999999999999500e-02

6.500000000000000222e-02

7.000000000000000666e-02

5.999999999999999778e-02

5.750000000000000250e-02

4.750000000000000056e-02

4.750000000000000056e-02

4.499999999999999833e-02

5.750000000000000250e-02

5.750000000000000250e-02

5.999999999999999778e-02

4.750000000000000056e-02

5.000000000000000278e-02

5.750000000000000250e-02

6.250000000000000000e-02

5.999999999999999778e-02

6.250000000000000000e-02

6.500000000000000222e-02

6.500000000000000222e-02

7.000000000000000666e-02

6.500000000000000222e-02

7.249999999999999500e-02

7.000000000000000666e-02

7.499999999999999722e-02

7.749999999999999944e-02

7.749999999999999944e-02

7.249999999999999500e-02

7.499999999999999722e-02

7.000000000000000666e-02

7.499999999999999722e-02

7.000000000000000666e-02

7.249999999999999500e-02

6.500000000000000222e-02

7.499999999999999722e-02

7.499999999999999722e-02

7.749999999999999944e-02

7.000000000000000666e-02

7.249999999999999500e-02

7.249999999999999500e-02

7.749999999999999944e-02

7.749999999999999944e-02

8.749999999999999445e-02

9.500000000000000111e-02

8.999999999999999667e-02

8.749999999999999445e-02

8.749999999999999445e-02

8.999999999999999667e-02

8.500000000000000611e-02

8.749999999999999445e-02

8.749999999999999445e-02

8.999999999999999667e-02

8.250000000000000389e-02

8.500000000000000611e-02

7.499999999999999722e-02

7.249999999999999500e-02

6.250000000000000000e-02

7.000000000000000666e-02

5.999999999999999778e-02

6.500000000000000222e-02

6.500000000000000222e-02

6.500000000000000222e-02

5.750000000000000250e-02

5.750000000000000250e-02

4.750000000000000056e-02

5.249999999999999806e-02

4.000000000000000083e-02

3.749999999999999861e-02

3.500000000000000333e-02

3.250000000000000111e-02

3.749999999999999861e-02

5.000000000000000278e-02

6.500000000000000222e-02

7.000000000000000666e-02

7.749999999999999944e-02

8.250000000000000389e-02

1.000000000000000056e-01

1.100000000000000006e-01

1.199999999999999956e-01

1.074999999999999983e-01

7.249999999999999500e-02

1.499999999999999944e-02

-2.249999999999999917e-02

-5.000000000000000278e-02

-5.000000000000000278e-02

-5.000000000000000278e-02

-5.000000000000000278e-02

-6.250000000000000000e-02

-5.000000000000000278e-02

-4.000000000000000083e-02

-3.250000000000000111e-02

0.000000000000000000e+00

5.249999999999999806e-02

1.275000000000000022e-01

2.525000000000000022e-01

4.525000000000000133e-01

7.650000000000000133e-01

1.102500000000000036e+00

1.284999999999999920e+00

1.222499999999999920e+00

8.499999999999999778e-01

2.225000000000000033e-01

-4.000000000000000222e-01

-7.900000000000000355e-01

-9.825000000000000400e-01

-9.350000000000000533e-01

-7.449999999999999956e-01

-5.474999999999999867e-01

-3.975000000000000200e-01

-2.700000000000000178e-01

-2.000000000000000111e-01

-1.650000000000000078e-01

-1.400000000000000133e-01

-1.074999999999999983e-01

-8.999999999999999667e-02

-7.249999999999999500e-02

-5.999999999999999778e-02

-4.499999999999999833e-02

-2.000000000000000042e-02

1.250000000000000069e-02

3.250000000000000111e-02

4.750000000000000056e-02

5.249999999999999806e-02

3.749999999999999861e-02

2.500000000000000139e-02

2.000000000000000042e-02

2.249999999999999917e-02

1.499999999999999944e-02

2.500000000000000139e-02

3.500000000000000333e-02

5.000000000000000278e-02

4.499999999999999833e-02

4.499999999999999833e-02

3.749999999999999861e-02

5.000000000000000278e-02

5.000000000000000278e-02

5.999999999999999778e-02

5.999999999999999778e-02

7.249999999999999500e-02

8.250000000000000389e-02

8.749999999999999445e-02

8.500000000000000611e-02

8.250000000000000389e-02

4.499999999999999833e-02

5.000000000000000278e-02

6.250000000000000000e-02

7.749999999999999944e-02

9.750000000000000333e-02

9.750000000000000333e-02

9.500000000000000111e-02

8.999999999999999667e-02

9.500000000000000111e-02

7.749999999999999944e-02

7.249999999999999500e-02

5.000000000000000278e-02

5.249999999999999806e-02

4.000000000000000083e-02

4.000000000000000083e-02

2.750000000000000014e-02

3.500000000000000333e-02

3.250000000000000111e-02

3.500000000000000333e-02

3.500000000000000333e-02

4.750000000000000056e-02

5.999999999999999778e-02

7.499999999999999722e-02

8.749999999999999445e-02

1.150000000000000050e-01

1.474999999999999922e-01

1.749999999999999889e-01

2.074999999999999900e-01

2.449999999999999956e-01

2.899999999999999800e-01

3.225000000000000089e-01

3.599999999999999867e-01

3.950000000000000178e-01

4.400000000000000022e-01

4.650000000000000244e-01

5.074999999999999512e-01

5.274999999999999689e-01

5.524999999999999911e-01

5.600000000000000533e-01

5.775000000000000133e-01

5.749999999999999556e-01

5.775000000000000133e-01

5.649999999999999467e-01

5.524999999999999911e-01

5.250000000000000222e-01

5.024999999999999467e-01

4.749999999999999778e-01

4.450000000000000067e-01

3.975000000000000200e-01

3.624999999999999889e-01

3.225000000000000089e-01

2.874999999999999778e-01

2.525000000000000022e-01

2.225000000000000033e-01

1.975000000000000089e-01

1.650000000000000078e-01

1.449999999999999900e-01

1.325000000000000067e-01

1.275000000000000022e-01

1.100000000000000006e-01

9.750000000000000333e-02

8.749999999999999445e-02

8.999999999999999667e-02

7.749999999999999944e-02

8.250000000000000389e-02

7.249999999999999500e-02

7.749999999999999944e-02

8.250000000000000389e-02

8.250000000000000389e-02

7.249999999999999500e-02

7.249999999999999500e-02

7.249999999999999500e-02

7.499999999999999722e-02

7.249999999999999500e-02

7.499999999999999722e-02

7.000000000000000666e-02

7.000000000000000666e-02

7.000000000000000666e-02

7.000000000000000666e-02

7.000000000000000666e-02

6.250000000000000000e-02

6.500000000000000222e-02

5.999999999999999778e-02

7.249999999999999500e-02

7.249999999999999500e-02

7.499999999999999722e-02

7.000000000000000666e-02

6.500000000000000222e-02

5.249999999999999806e-02

5.750000000000000250e-02

5.000000000000000278e-02

5.249999999999999806e-02

4.750000000000000056e-02

4.750000000000000056e-02

4.000000000000000083e-02

4.499999999999999833e-02

3.749999999999999861e-02

4.000000000000000083e-02

3.500000000000000333e-02

3.500000000000000333e-02

3.500000000000000333e-02

2.750000000000000014e-02

2.249999999999999917e-02

1.250000000000000069e-02

2.249999999999999917e-02

2.249999999999999917e-02

2.500000000000000139e-02

2.249999999999999917e-02

2.500000000000000139e-02

2.249999999999999917e-02

3.250000000000000111e-02

3.250000000000000111e-02

3.250000000000000111e-02

2.249999999999999917e-02

2.750000000000000014e-02

2.249999999999999917e-02

3.749999999999999861e-02

4.499999999999999833e-02

4.750000000000000056e-02

4.750000000000000056e-02

6.250000000000000000e-02

5.249999999999999806e-02

5.249999999999999806e-02

4.499999999999999833e-02

4.000000000000000083e-02

4.499999999999999833e-02

4.000000000000000083e-02

3.749999999999999861e-02

3.250000000000000111e-02

3.500000000000000333e-02

3.250000000000000111e-02

3.500000000000000333e-02

3.500000000000000333e-02

3.749999999999999861e-02

2.000000000000000042e-02

2.000000000000000042e-02

7.499999999999999722e-03

7.499999999999999722e-03

-1.499999999999999944e-02

2.500000000000000052e-03

-1.499999999999999944e-02

-1.499999999999999944e-02

-2.500000000000000139e-02

-2.500000000000000139e-02

-2.500000000000000139e-02

0.000000000000000000e+00

2.500000000000000052e-03

2.500000000000000052e-03

0.000000000000000000e+00

7.499999999999999722e-03

1.000000000000000021e-02

2.000000000000000042e-02

2.500000000000000139e-02

2.750000000000000014e-02

3.500000000000000333e-02

2.750000000000000014e-02

3.250000000000000111e-02

2.750000000000000014e-02

3.749999999999999861e-02

4.499999999999999833e-02

4.750000000000000056e-02

4.499999999999999833e-02

5.750000000000000250e-02

5.750000000000000250e-02

5.999999999999999778e-02

5.249999999999999806e-02

6.250000000000000000e-02

5.999999999999999778e-02

5.999999999999999778e-02

5.249999999999999806e-02

5.750000000000000250e-02

4.750000000000000056e-02

5.000000000000000278e-02

5.249999999999999806e-02

5.750000000000000250e-02

4.750000000000000056e-02

4.750000000000000056e-02

4.750000000000000056e-02

4.750000000000000056e-02

6.250000000000000000e-02

5.999999999999999778e-02

5.999999999999999778e-02

5.249999999999999806e-02

5.999999999999999778e-02

5.750000000000000250e-02

6.250000000000000000e-02

5.750000000000000250e-02

7.249999999999999500e-02

6.250000000000000000e-02

6.250000000000000000e-02

4.750000000000000056e-02

4.750000000000000056e-02

4.499999999999999833e-02

4.750000000000000056e-02

3.749999999999999861e-02

4.499999999999999833e-02

4.499999999999999833e-02

4.750000000000000056e-02

4.000000000000000083e-02

4.750000000000000056e-02

4.499999999999999833e-02

3.500000000000000333e-02

3.500000000000000333e-02

3.250000000000000111e-02

3.500000000000000333e-02

2.750000000000000014e-02

3.250000000000000111e-02

2.500000000000000139e-02

2.249999999999999917e-02

1.250000000000000069e-02

1.499999999999999944e-02

7.499999999999999722e-03

1.000000000000000021e-02

0.000000000000000000e+00

0.000000000000000000e+00

0.000000000000000000e+00

7.499999999999999722e-03

1.250000000000000069e-02

2.750000000000000014e-02

3.749999999999999861e-02

5.999999999999999778e-02

7.000000000000000666e-02

7.499999999999999722e-02

7.499999999999999722e-02

8.749999999999999445e-02

8.999999999999999667e-02

8.250000000000000389e-02

4.750000000000000056e-02

0.000000000000000000e+00

-5.249999999999999806e-02

-8.749999999999999445e-02

-9.500000000000000111e-02

-1.024999999999999939e-01

-1.024999999999999939e-01

-1.100000000000000006e-01

-1.024999999999999939e-01

-1.024999999999999939e-01

-8.500000000000000611e-02

-8.500000000000000611e-02

-7.499999999999999722e-02

-7.499999999999999722e-02

-6.500000000000000222e-02

-6.500000000000000222e-02

-5.999999999999999778e-02

-5.999999999999999778e-02

-5.000000000000000278e-02

-4.499999999999999833e-02

-2.750000000000000014e-02

-1.499999999999999944e-02

1.000000000000000021e-02

3.250000000000000111e-02

7.749999999999999944e-02

1.499999999999999944e-01

2.600000000000000089e-01

4.575000000000000178e-01

7.750000000000000222e-01

1.199999999999999956e+00

1.510000000000000009e+00

1.540000000000000036e+00

1.252499999999999947e+00

5.875000000000000222e-01

-1.824999999999999956e-01

-7.275000000000000355e-01

-1.037500000000000089e+00

-1.077499999999999902e+00

-8.850000000000000089e-01

-6.450000000000000178e-01

-4.600000000000000200e-01

-3.125000000000000000e-01

-2.200000000000000011e-01

-1.575000000000000011e-01

-1.199999999999999956e-01

-8.250000000000000389e-02

-6.250000000000000000e-02

-3.250000000000000111e-02

1.250000000000000069e-02

3.500000000000000333e-02

6.250000000000000000e-02

8.999999999999999667e-02

1.199999999999999956e-01

1.350000000000000089e-01

1.449999999999999900e-01

1.400000000000000133e-01

1.449999999999999900e-01

1.400000000000000133e-01

1.524999999999999967e-01

1.499999999999999944e-01

1.625000000000000056e-01

1.625000000000000056e-01

1.724999999999999867e-01

1.724999999999999867e-01

1.749999999999999889e-01

1.724999999999999867e-01

1.749999999999999889e-01

1.724999999999999867e-01

1.724999999999999867e-01

1.625000000000000056e-01

1.600000000000000033e-01

1.600000000000000033e-01

1.600000000000000033e-01

1.650000000000000078e-01

1.524999999999999967e-01

1.000000000000000056e-01

8.500000000000000611e-02

8.500000000000000611e-02

8.250000000000000389e-02

8.749999999999999445e-02

8.749999999999999445e-02

7.499999999999999722e-02

5.249999999999999806e-02

5.249999999999999806e-02

3.749999999999999861e-02

2.750000000000000014e-02

1.000000000000000021e-02

7.499999999999999722e-03

0.000000000000000000e+00

0.000000000000000000e+00

-2.500000000000000139e-02

-2.500000000000000139e-02

-3.749999999999999861e-02

-3.749999999999999861e-02

-3.749999999999999861e-02

-2.750000000000000014e-02

-2.500000000000000139e-02

0.000000000000000000e+00

1.499999999999999944e-02

3.250000000000000111e-02

5.999999999999999778e-02

9.500000000000000111e-02

1.350000000000000089e-01

1.724999999999999867e-01

2.200000000000000011e-01

2.500000000000000000e-01

2.899999999999999800e-01

3.225000000000000089e-01

3.649999999999999911e-01

3.975000000000000200e-01

4.475000000000000089e-01

4.774999999999999800e-01

5.124999999999999556e-01

