2.525000000000000022e-01

1.400000000000000133e-01

8.000000000000000167e-02

7.249999999999999500e-02

9.750000000000000333e-02

8.749999999999999445e-02

4.250000000000000305e-02

-6.500000000000000222e-02

-2.700000000000000178e-01

-3.875000000000000111e-01

-3.674999999999999933e-01

-3.074999999999999956e-01

-2.250000000000000056e-01

-8.999999999999999667e-02

0.000000000000000000e+00

1.499999999999999944e-02

-2.249999999999999917e-02

-1.549999999999999989e-01

-2.399999999999999911e-01

-3.200000000000000067e-01

-3.074999999999999956e-01

-2.550000000000000044e-01

-2.924999999999999822e-01

-3.449999999999999734e-01

-3.225000000000000089e-01

-2.824999999999999734e-01

-2.250000000000000056e-01

-2.025000000000000133e-01

-2.250000000000000056e-01

-2.325000000000000122e-01

-2.474999999999999978e-01

-3.074999999999999956e-01

-2.750000000000000222e-01

-4.250000000000000305e-02

1.625000000000000056e-01

2.775000000000000244e-01

3.449999999999999734e-01

4.050000000000000266e-01

4.699999999999999734e-01

5.749999999999999556e-01

7.700000000000000178e-01

9.599999999999999645e-01

1.125000000000000000e+00

1.192499999999999893e+00

1.064999999999999947e+00

9.050000000000000266e-01

9.050000000000000266e-01

1.125000000000000000e+00

1.425000000000000044e+00

1.377499999999999947e+00

9.599999999999999645e-01

4.650000000000000244e-01

5.999999999999999778e-02

-2.675000000000000155e-01

-5.324999999999999734e-01

-8.299999999999999600e-01

-9.875000000000000444e-01

-9.799999999999999822e-01

-9.000000000000000222e-01

-8.325000000000000178e-01

-8.375000000000000222e-01

-9.675000000000000266e-01

-1.114999999999999991e+00

-1.147499999999999964e+00

-1.207500000000000018e+00

-1.197500000000000009e+00

-1.155000000000000027e+00

-1.107499999999999929e+00

-1.077499999999999902e+00

-1.072500000000000009e+00

-1.070000000000000062e+00

-1.027500000000000080e+00

-1.020000000000000018e+00

-9.899999999999999911e-01

-9.675000000000000266e-01

-9.675000000000000266e-01

-9.300000000000000488e-01

-8.399999999999999689e-01

-8.249999999999999556e-01

-8.750000000000000000e-01

-1.010000000000000009e+00

-1.245000000000000107e+00

-1.445000000000000062e+00

-1.469999999999999973e+00

-1.402500000000000080e+00

-1.304999999999999938e+00

-1.242499999999999938e+00

-1.287500000000000089e+00

-1.324999999999999956e+00

-1.372500000000000053e+00

-1.392500000000000071e+00

-1.340000000000000080e+00

-1.264999999999999902e+00

-1.189999999999999947e+00

-1.145000000000000018e+00

-1.125000000000000000e+00

-1.084999999999999964e+00

-9.825000000000000400e-01

-8.675000000000000488e-01

-7.700000000000000178e-01

-6.800000000000000488e-01

-6.125000000000000444e-01

-5.999999999999999778e-01

-6.149999999999999911e-01

-6.225000000000000533e-01

-6.374999999999999556e-01

-5.699999999999999512e-01

-4.625000000000000222e-01

-4.199999999999999845e-01

-4.650000000000000244e-01

-5.250000000000000222e-01

-6.450000000000000178e-01

-8.074999999999999956e-01

-8.599999999999999867e-01

-8.249999999999999556e-01

-7.650000000000000133e-01

-6.975000000000000089e-01

-7.199999999999999734e-01

-8.225000000000000089e-01

-8.449999999999999734e-01

-8.100000000000000533e-01

-7.399999999999999911e-01

-7.025000000000000133e-01

-7.349999999999999867e-01

-7.774999999999999689e-01

-7.724999999999999645e-01

-8.074999999999999956e-01

-7.950000000000000400e-01

-7.500000000000000000e-01

-7.249999999999999778e-01

-7.349999999999999867e-01

-7.650000000000000133e-01

-8.175000000000000044e-01

-8.900000000000000133e-01

-9.000000000000000222e-01

-8.375000000000000222e-01

-8.175000000000000044e-01

-8.299999999999999600e-01

-8.175000000000000044e-01

-8.100000000000000533e-01

-8.599999999999999867e-01

-8.974999999999999645e-01

-8.774999999999999467e-01

-8.325000000000000178e-01

-7.874999999999999778e-01

-7.574999999999999512e-01

-7.550000000000000044e-01

-8.475000000000000311e-01

-9.449999999999999512e-01

-9.525000000000000133e-01

-8.750000000000000000e-01

-7.650000000000000133e-01

-6.600000000000000311e-01

-6.350000000000000089e-01

-7.125000000000000222e-01

-7.624999999999999556e-01

-7.325000000000000400e-01

-6.724999999999999867e-01

-6.199999999999999956e-01

-5.899999999999999689e-01

-5.174999999999999600e-01

-4.174999999999999822e-01

-3.350000000000000200e-01

-2.849999999999999756e-01

-2.000000000000000111e-01

-1.100000000000000006e-01

-4.499999999999999833e-02

-7.249999999999999500e-02

-3.449999999999999734e-01

-6.500000000000000222e-01

-8.449999999999999734e-01

-9.000000000000000222e-01

-8.475000000000000311e-01

-7.650000000000000133e-01

-8.100000000000000533e-01

-9.350000000000000533e-01

-9.799999999999999822e-01

-9.649999999999999689e-01

-9.274999999999999911e-01

-9.074999999999999734e-01

-9.050000000000000266e-01

-9.224999999999999867e-01

-1.064999999999999947e+00

-1.235000000000000098e+00

-1.324999999999999956e+00

-1.350000000000000089e+00

-1.385000000000000009e+00

-1.317499999999999893e+00

-1.245000000000000107e+00

-1.199999999999999956e+00

-1.132500000000000062e+00

-1.054999999999999938e+00

-1.057500000000000107e+00

-1.145000000000000018e+00

-1.162500000000000089e+00

-1.197500000000000009e+00

-1.207500000000000018e+00

-1.207500000000000018e+00

-1.189999999999999947e+00

-1.169999999999999929e+00

-1.155000000000000027e+00

-1.155000000000000027e+00

-1.087499999999999911e+00

-1.017500000000000071e+00

-9.975000000000000533e-01

-1.047500000000000098e+00

-1.057500000000000107e+00

-9.449999999999999512e-01

-7.650000000000000133e-01

-5.024999999999999467e-01

-2.074999999999999900e-01

-7.499999999999999722e-02

-8.000000000000000167e-02

-2.750000000000000014e-02

1.700000000000000122e-01

3.574999999999999845e-01

5.400000000000000355e-01

6.600000000000000311e-01

6.424999999999999600e-01

6.875000000000000000e-01

8.625000000000000444e-01

1.102500000000000036e+00

1.290000000000000036e+00

1.072500000000000009e+00

5.400000000000000355e-01

-5.000000000000000278e-02

-5.899999999999999689e-01

-1.062500000000000000e+00

-1.320000000000000062e+00

-1.402500000000000080e+00

-1.429999999999999938e+00

-1.377499999999999947e+00

-1.264999999999999902e+00

-1.162500000000000089e+00

-1.177499999999999991e+00

-1.274999999999999911e+00

-1.429999999999999938e+00

-1.500000000000000000e+00

-1.455000000000000071e+00

-1.354999999999999982e+00

-1.237500000000000044e+00

-1.177499999999999991e+00

-1.192499999999999893e+00

-1.207500000000000018e+00

-1.132500000000000062e+00

-1.054999999999999938e+00

-1.080000000000000071e+00

-1.175000000000000044e+00

-1.280000000000000027e+00

-1.340000000000000080e+00

-1.334999999999999964e+00

-1.310000000000000053e+00

-1.229999999999999982e+00

-1.197500000000000009e+00

-1.177499999999999991e+00

-1.145000000000000018e+00

-1.145000000000000018e+00

-1.185000000000000053e+00

-1.252499999999999947e+00

-1.264999999999999902e+00

-1.189999999999999947e+00

-1.057500000000000107e+00

-9.725000000000000311e-01

-9.649999999999999689e-01

-9.949999999999999956e-01

-1.114999999999999991e+00

-1.267500000000000071e+00

-1.354999999999999982e+00

-1.347499999999999920e+00

-1.252499999999999947e+00

-1.062500000000000000e+00

-9.050000000000000266e-01

-7.850000000000000311e-01

-7.199999999999999734e-01

-6.824999999999999956e-01

-5.699999999999999512e-01

-4.724999999999999756e-01

-3.800000000000000044e-01

-3.225000000000000089e-01

-3.074999999999999956e-01

-3.200000000000000067e-01

-3.225000000000000089e-01

-3.150000000000000022e-01

-2.974999999999999867e-01

-2.750000000000000222e-01

-2.750000000000000222e-01

-2.700000000000000178e-01

-2.250000000000000056e-01

-1.925000000000000044e-01

-1.774999999999999911e-01

-1.499999999999999944e-01

-1.549999999999999989e-01

-2.300000000000000100e-01

-2.924999999999999822e-01

-2.449999999999999956e-01

-1.849999999999999978e-01

-2.074999999999999900e-01

-3.074999999999999956e-01

-3.975000000000000200e-01

-4.650000000000000244e-01

-4.475000000000000089e-01

-3.875000000000000111e-01

-3.499999999999999778e-01

-2.974999999999999867e-01

-2.525000000000000022e-01

-2.474999999999999978e-01

-2.700000000000000178e-01

-3.449999999999999734e-01

-4.400000000000000022e-01

-4.274999999999999911e-01

-3.425000000000000266e-01

-2.074999999999999900e-01

-1.700000000000000122e-01

-1.799999999999999933e-01

-1.925000000000000044e-01

-1.849999999999999978e-01

-2.474999999999999978e-01

-3.049999999999999933e-01

-3.200000000000000067e-01

-2.675000000000000155e-01

-1.774999999999999911e-01

-8.250000000000000389e-02

5.000000000000000104e-03

-2.000000000000000042e-02

-4.250000000000000305e-02

-2.000000000000000042e-02

3.500000000000000333e-02

8.250000000000000389e-02

1.400000000000000133e-01

1.799999999999999933e-01

5.000000000000000278e-02

-5.999999999999999778e-02

-5.000000000000000278e-02

4.250000000000000305e-02

1.174999999999999933e-01

1.925000000000000044e-01

2.250000000000000056e-01

2.849999999999999756e-01

4.274999999999999911e-01

5.150000000000000133e-01

5.074999999999999512e-01

3.800000000000000044e-01

2.025000000000000133e-01

9.500000000000000111e-02

8.999999999999999667e-02

1.049999999999999961e-01

1.424999999999999878e-01

2.025000000000000133e-01

1.625000000000000056e-01

5.750000000000000250e-02

-9.500000000000000111e-02

-3.350000000000000200e-01

-4.699999999999999734e-01

-5.524999999999999911e-01

-5.024999999999999467e-01

-4.799999999999999822e-01

-4.799999999999999822e-01

-4.475000000000000089e-01

-4.199999999999999845e-01

-4.400000000000000022e-01

-4.124999999999999778e-01

-3.375000000000000222e-01

-2.250000000000000056e-01

-1.799999999999999933e-01

-1.849999999999999978e-01

-2.025000000000000133e-01

-2.700000000000000178e-01

-3.950000000000000178e-01

-4.625000000000000222e-01

-5.324999999999999734e-01

-6.199999999999999956e-01

-5.849999999999999645e-01

-5.675000000000000044e-01

-5.625000000000000000e-01

-5.324999999999999734e-01

-4.874999999999999889e-01

-3.900000000000000133e-01

-3.375000000000000222e-01

-4.050000000000000266e-01

-4.099999999999999756e-01

-1.950000000000000067e-01

6.500000000000000222e-02

2.675000000000000155e-01

4.650000000000000244e-01

5.675000000000000044e-01

5.400000000000000355e-01

5.699999999999999512e-01

6.975000000000000089e-01

8.249999999999999556e-01

8.924999999999999600e-01

9.150000000000000355e-01

8.299999999999999600e-01

6.899999999999999467e-01

5.600000000000000533e-01

6.574999999999999734e-01

9.224999999999999867e-01

9.825000000000000400e-01

7.650000000000000133e-01

4.774999999999999800e-01

1.474999999999999922e-01

-1.950000000000000067e-01

-4.575000000000000178e-01

-6.450000000000000178e-01

-7.850000000000000311e-01

-7.724999999999999645e-01

-6.500000000000000222e-01

-5.174999999999999600e-01

-5.324999999999999734e-01

-6.300000000000000044e-01

-7.025000000000000133e-01

-6.524999999999999689e-01

-6.350000000000000089e-01

-6.674999999999999822e-01

-7.025000000000000133e-01

-8.249999999999999556e-01

-9.000000000000000222e-01

-9.350000000000000533e-01

-9.200000000000000400e-01

-8.625000000000000444e-01

-8.750000000000000000e-01

-9.000000000000000222e-01

-9.200000000000000400e-01

-8.525000000000000355e-01

-7.950000000000000400e-01

-7.950000000000000400e-01

-8.299999999999999600e-01

-8.699999999999999956e-01

-8.924999999999999600e-01

-9.050000000000000266e-01

-8.299999999999999600e-01

-7.550000000000000044e-01

-7.500000000000000000e-01

-7.500000000000000000e-01

-7.049999999999999600e-01

-7.025000000000000133e-01

-7.125000000000000222e-01

-6.899999999999999467e-01

-7.125000000000000222e-01

-8.000000000000000444e-01

-8.675000000000000488e-01

-9.150000000000000355e-01

-9.300000000000000488e-01

-7.874999999999999778e-01

-6.225000000000000533e-01

-4.949999999999999956e-01

-3.950000000000000178e-01

-3.150000000000000022e-01

-2.675000000000000155e-01

-1.575000000000000011e-01

-1.049999999999999961e-01

-1.275000000000000022e-01

-2.074999999999999900e-01

-2.525000000000000022e-01

-2.675000000000000155e-01

-2.174999999999999989e-01

-1.724999999999999867e-01

-8.999999999999999667e-02

-6.750000000000000444e-02

-1.024999999999999939e-01

-1.125000000000000028e-01

-1.325000000000000067e-01

-1.400000000000000133e-01

-1.275000000000000022e-01

-8.999999999999999667e-02

-5.999999999999999778e-02

-9.500000000000000111e-02

-1.199999999999999956e-01

-1.325000000000000067e-01

-1.625000000000000056e-01

-1.925000000000000044e-01

-2.074999999999999900e-01

-1.849999999999999978e-01

-1.724999999999999867e-01

-1.325000000000000067e-01

-8.000000000000000167e-02

-2.750000000000000014e-02

-3.500000000000000333e-02

-5.249999999999999806e-02

-1.549999999999999989e-01

-2.899999999999999800e-01

-3.649999999999999911e-01

-2.999999999999999889e-01

-2.474999999999999978e-01

-2.924999999999999822e-01

-3.225000000000000089e-01

-3.524999999999999800e-01

-3.574999999999999845e-01

-3.375000000000000222e-01

-2.974999999999999867e-01

-2.700000000000000178e-01

-2.999999999999999889e-01

-3.049999999999999933e-01

-2.449999999999999956e-01

-2.300000000000000100e-01

-2.099999999999999922e-01

-1.849999999999999978e-01

-1.199999999999999956e-01

-5.999999999999999778e-02

2.750000000000000014e-02

8.250000000000000389e-02

1.250000000000000000e-01

1.549999999999999989e-01

2.000000000000000111e-01

2.399999999999999911e-01

2.924999999999999822e-01

2.700000000000000178e-01

2.449999999999999956e-01

2.374999999999999889e-01

2.399999999999999911e-01

2.250000000000000056e-01

3.125000000000000000e-01

3.950000000000000178e-01

3.950000000000000178e-01

3.425000000000000266e-01

2.399999999999999911e-01

1.199999999999999956e-01

2.999999999999999889e-02

2.000000000000000042e-02

2.999999999999999889e-02

4.499999999999999833e-02

-3.500000000000000333e-02

-1.799999999999999933e-01

-2.775000000000000244e-01

-3.499999999999999778e-01

-3.800000000000000044e-01

-3.225000000000000089e-01

-2.899999999999999800e-01

-2.775000000000000244e-01

-2.474999999999999978e-01

-1.625000000000000056e-01

-1.499999999999999944e-01

-2.000000000000000111e-01

-2.449999999999999956e-01

-3.200000000000000067e-01

-4.324999999999999956e-01

-4.874999999999999889e-01

-4.550000000000000155e-01

-4.874999999999999889e-01

-5.000000000000000000e-01

-4.475000000000000089e-01

-3.599999999999999867e-01

-2.625000000000000111e-01

-1.549999999999999989e-01

-8.250000000000000389e-02

-9.750000000000000333e-02

-1.199999999999999956e-01

-1.700000000000000122e-01

-2.675000000000000155e-01

-3.150000000000000022e-01

-3.074999999999999956e-01

-3.150000000000000022e-01

-4.099999999999999756e-01

-3.350000000000000200e-01

-1.774999999999999911e-01

1.499999999999999944e-01

5.374999999999999778e-01

8.024999999999999911e-01

8.699999999999999956e-01

9.799999999999999822e-01

1.229999999999999982e+00

1.485000000000000098e+00

1.672500000000000098e+00

1.665000000000000036e+00

1.534999999999999920e+00

1.469999999999999973e+00

1.544999999999999929e+00

1.784999999999999920e+00

2.007499999999999840e+00

1.834999999999999964e+00

1.274999999999999911e+00

7.175000000000000266e-01

2.849999999999999756e-01

0.000000000000000000e+00

-1.424999999999999878e-01

-2.824999999999999734e-01

-3.574999999999999845e-01

-3.900000000000000133e-01

-3.900000000000000133e-01

-3.875000000000000111e-01

-4.924999999999999933e-01

-6.524999999999999689e-01

-6.975000000000000089e-01

-6.674999999999999822e-01

-5.825000000000000178e-01

-5.250000000000000222e-01

-4.550000000000000155e-01

-3.950000000000000178e-01

-3.900000000000000133e-01

-4.249999999999999889e-01

-4.249999999999999889e-01

-4.099999999999999756e-01

-4.475000000000000089e-01

-4.249999999999999889e-01

-2.899999999999999800e-01

-9.750000000000000333e-02

2.249999999999999917e-02

8.999999999999999667e-02

5.000000000000000278e-02

-1.549999999999999989e-01

-4.699999999999999734e-01

-7.049999999999999600e-01

-7.099999999999999645e-01

-6.149999999999999911e-01

-5.074999999999999512e-01

-4.475000000000000089e-01

-4.724999999999999756e-01

-5.150000000000000133e-01

-4.924999999999999933e-01

-3.800000000000000044e-01

-3.225000000000000089e-01

-3.150000000000000022e-01

-2.399999999999999911e-01

-1.250000000000000000e-01

-2.999999999999999889e-02

1.499999999999999944e-02

7.499999999999999722e-03

-7.499999999999999722e-02

-1.650000000000000078e-01

-2.174999999999999989e-01

-1.350000000000000089e-01

6.500000000000000222e-02

1.774999999999999911e-01

3.074999999999999956e-01

4.349999999999999978e-01

5.474999999999999867e-01

5.925000000000000266e-01

5.524999999999999911e-01

4.550000000000000155e-01

4.099999999999999756e-01

4.349999999999999978e-01

5.324999999999999734e-01

6.149999999999999911e-01

6.450000000000000178e-01

6.524999999999999689e-01

5.174999999999999600e-01

3.800000000000000044e-01

3.049999999999999933e-01

2.924999999999999822e-01

3.825000000000000067e-01

5.224999999999999645e-01

5.600000000000000533e-01

4.774999999999999800e-01

4.025000000000000244e-01

4.025000000000000244e-01

4.025000000000000244e-01

3.375000000000000222e-01

3.449999999999999734e-01

3.825000000000000067e-01

4.550000000000000155e-01

4.475000000000000089e-01

4.799999999999999822e-01

4.849999999999999867e-01

4.050000000000000266e-01

3.649999999999999911e-01

3.574999999999999845e-01

2.824999999999999734e-01

2.999999999999999889e-01

3.574999999999999845e-01

3.599999999999999867e-01

3.599999999999999867e-01

3.074999999999999956e-01

3.524999999999999800e-01

4.650000000000000244e-01

5.699999999999999512e-01

6.125000000000000444e-01

5.174999999999999600e-01

3.350000000000000200e-01

2.149999999999999967e-01

3.225000000000000089e-01

4.774999999999999800e-01

5.925000000000000266e-01

6.424999999999999600e-01

5.625000000000000000e-01

5.024999999999999467e-01

5.400000000000000355e-01

6.374999999999999556e-01

6.724999999999999867e-01

5.975000000000000311e-01

5.000000000000000000e-01

5.899999999999999689e-01

7.574999999999999512e-01

8.900000000000000133e-01

9.975000000000000533e-01

9.825000000000000400e-01

8.024999999999999911e-01

7.500000000000000000e-01

8.149999999999999467e-01

8.850000000000000089e-01

9.525000000000000133e-01

8.699999999999999956e-01

6.450000000000000178e-01

4.249999999999999889e-01

3.825000000000000067e-01

4.025000000000000244e-01

3.449999999999999734e-01

2.750000000000000222e-01

2.074999999999999900e-01

1.724999999999999867e-01

2.824999999999999734e-01

4.124999999999999778e-01

3.674999999999999933e-01

2.025000000000000133e-01

2.750000000000000014e-02

-3.300000000000000155e-01

-4.099999999999999756e-01

-2.550000000000000044e-01

-2.999999999999999889e-02

2.000000000000000111e-01

1.849999999999999978e-01

-4.250000000000000305e-02

-1.549999999999999989e-01

-1.024999999999999939e-01

-4.499999999999999833e-02

4.250000000000000305e-02

4.250000000000000305e-02

1.250000000000000069e-02

8.999999999999999667e-02

1.499999999999999944e-01

1.250000000000000000e-01

-2.999999999999999889e-02

-7.249999999999999500e-02

-1.499999999999999944e-01

-8.250000000000000389e-02

2.750000000000000014e-02

5.999999999999999778e-02

2.374999999999999889e-01

3.449999999999999734e-01

4.625000000000000222e-01

6.949999999999999512e-01

8.074999999999999956e-01

1.017500000000000071e+00

1.287500000000000089e+00

1.550000000000000044e+00

1.732499999999999929e+00

1.770000000000000018e+00

1.754999999999999893e+00

1.620000000000000107e+00

1.572500000000000009e+00

1.597499999999999920e+00

1.709999999999999964e+00

1.745000000000000107e+00

1.542499999999999982e+00

1.177499999999999991e+00

8.525000000000000355e-01

4.400000000000000022e-01

2.249999999999999917e-02

-2.675000000000000155e-01

-5.250000000000000222e-01

-5.600000000000000533e-01

-5.825000000000000178e-01

-6.500000000000000222e-01

-7.249999999999999778e-01

-7.275000000000000355e-01

-6.975000000000000089e-01

-6.674999999999999822e-01

-6.149999999999999911e-01

-5.699999999999999512e-01

-5.450000000000000400e-01

-5.100000000000000089e-01

-5.250000000000000222e-01

-5.849999999999999645e-01

-6.300000000000000044e-01

-6.374999999999999556e-01

-6.350000000000000089e-01

-5.600000000000000533e-01

-4.799999999999999822e-01

-4.050000000000000266e-01

-2.449999999999999956e-01

-1.799999999999999933e-01

-2.099999999999999922e-01

-3.900000000000000133e-01

-6.500000000000000222e-01

-1.002499999999999947e+00

-1.212499999999999911e+00

-1.114999999999999991e+00

-9.050000000000000266e-01

-8.175000000000000044e-01

-7.574999999999999512e-01

-7.724999999999999645e-01

-8.449999999999999734e-01

-8.475000000000000311e-01

-8.000000000000000444e-01

-7.774999999999999689e-01

-7.924999999999999822e-01

-7.249999999999999778e-01

-5.849999999999999645e-01

-5.074999999999999512e-01

-4.324999999999999956e-01

-3.524999999999999800e-01

-3.649999999999999911e-01

-3.574999999999999845e-01

-3.049999999999999933e-01

-2.849999999999999756e-01

-2.250000000000000056e-01

-1.424999999999999878e-01

0.000000000000000000e+00

1.024999999999999939e-01

1.325000000000000067e-01

1.400000000000000133e-01

1.024999999999999939e-01

1.174999999999999933e-01

1.350000000000000089e-01

1.575000000000000011e-01

1.774999999999999911e-01

1.275000000000000022e-01

1.049999999999999961e-01

6.500000000000000222e-02

5.750000000000000250e-02

1.275000000000000022e-01

1.174999999999999933e-01

5.999999999999999778e-02

6.750000000000000444e-02

5.000000000000000278e-02

-2.750000000000000014e-02

1.250000000000000069e-02

0.000000000000000000e+00

0.000000000000000000e+00

-7.249999999999999500e-02

-1.724999999999999867e-01

-2.399999999999999911e-01

-2.099999999999999922e-01

-5.750000000000000250e-02

8.749999999999999445e-02

1.024999999999999939e-01

9.500000000000000111e-02

5.000000000000000278e-02

0.000000000000000000e+00

-3.749999999999999861e-02

-9.500000000000000111e-02

-1.275000000000000022e-01

-9.750000000000000333e-02

-8.000000000000000167e-02

-7.249999999999999500e-02

-3.500000000000000333e-02

-2.249999999999999917e-02

-2.750000000000000014e-02

-5.249999999999999806e-02

-8.999999999999999667e-02

-8.250000000000000389e-02

2.999999999999999889e-02

6.500000000000000222e-02

4.499999999999999833e-02

5.999999999999999778e-02

8.250000000000000389e-02

1.400000000000000133e-01

1.849999999999999978e-01

2.325000000000000122e-01

2.525000000000000022e-01

2.924999999999999822e-01

2.924999999999999822e-01

3.449999999999999734e-01

4.249999999999999889e-01

4.924999999999999933e-01

4.724999999999999756e-01

4.799999999999999822e-01

4.550000000000000155e-01

4.050000000000000266e-01

3.574999999999999845e-01

2.924999999999999822e-01

2.225000000000000033e-01

1.400000000000000133e-01

1.325000000000000067e-01

1.350000000000000089e-01

3.500000000000000333e-02

-5.249999999999999806e-02

-9.750000000000000333e-02

-1.625000000000000056e-01

-2.149999999999999967e-01

-2.700000000000000178e-01

-3.300000000000000155e-01

-3.375000000000000222e-01

-3.275000000000000133e-01

-3.375000000000000222e-01

-3.649999999999999911e-01

-4.274999999999999911e-01

-4.249999999999999889e-01

-3.950000000000000178e-01

-4.050000000000000266e-01

-3.674999999999999933e-01

-2.999999999999999889e-01

-2.625000000000000111e-01

-2.149999999999999967e-01

-1.024999999999999939e-01

-1.125000000000000028e-01

-4.249999999999999889e-01

-7.774999999999999689e-01

-8.699999999999999956e-01

-7.724999999999999645e-01

-6.374999999999999556e-01

-5.400000000000000355e-01

-5.100000000000000089e-01

-5.174999999999999600e-01

-4.400000000000000022e-01

-3.750000000000000000e-01

-3.649999999999999911e-01

-3.975000000000000200e-01

-2.750000000000000222e-01

-8.999999999999999667e-02

1.575000000000000011e-01

3.750000000000000000e-01

5.400000000000000355e-01

7.199999999999999734e-01

9.575000000000000178e-01

1.139999999999999902e+00

1.229999999999999982e+00

1.354999999999999982e+00

1.399999999999999911e+00

1.257500000000000062e+00

1.122500000000000053e+00

1.117499999999999938e+00

1.334999999999999964e+00

1.610000000000000098e+00

1.597499999999999920e+00

1.152500000000000080e+00

5.849999999999999645e-01

2.249999999999999917e-02

-4.650000000000000244e-01

-7.199999999999999734e-01

-8.549999999999999822e-01

-9.074999999999999734e-01

-9.350000000000000533e-01

-8.699999999999999956e-01

-8.449999999999999734e-01

-8.475000000000000311e-01

-8.399999999999999689e-01

-7.874999999999999778e-01

-7.724999999999999645e-01

-7.924999999999999822e-01

-8.525000000000000355e-01

-9.825000000000000400e-01

-1.032499999999999973e+00

-9.899999999999999911e-01

-9.649999999999999689e-01

-9.050000000000000266e-01

-8.024999999999999911e-01

-8.225000000000000089e-01

-8.375000000000000222e-01

-8.299999999999999600e-01

-8.675000000000000488e-01

-8.625000000000000444e-01

-7.724999999999999645e-01

-7.500000000000000000e-01

-8.074999999999999956e-01

-8.225000000000000089e-01

-7.850000000000000311e-01

-7.425000000000000488e-01

-7.850000000000000311e-01

-9.425000000000000044e-01

-1.094999999999999973e+00

-1.147499999999999964e+00

-1.027500000000000080e+00

-9.350000000000000533e-01

-8.924999999999999600e-01

-8.924999999999999600e-01

-8.100000000000000533e-01

-7.349999999999999867e-01

-6.524999999999999689e-01

-5.675000000000000044e-01

-4.949999999999999956e-01

-4.550000000000000155e-01

-4.199999999999999845e-01

-3.975000000000000200e-01

-3.750000000000000000e-01

-2.899999999999999800e-01

-1.325000000000000067e-01

4.250000000000000305e-02

1.499999999999999944e-01

1.400000000000000133e-01

-1.174999999999999933e-01

-2.374999999999999889e-01

-2.149999999999999967e-01

-1.350000000000000089e-01

5.000000000000000104e-03

3.749999999999999861e-02

2.000000000000000042e-02

1.250000000000000069e-02

4.250000000000000305e-02

1.049999999999999961e-01

5.249999999999999806e-02

2.000000000000000042e-02

5.750000000000000250e-02

1.174999999999999933e-01

1.774999999999999911e-01

2.099999999999999922e-01

2.374999999999999889e-01

2.399999999999999911e-01

8.749999999999999445e-02

-5.000000000000000278e-02

5.750000000000000250e-02

1.950000000000000067e-01

2.924999999999999822e-01

2.899999999999999800e-01

1.275000000000000022e-01

-1.125000000000000028e-01

-2.700000000000000178e-01

-2.899999999999999800e-01

-1.774999999999999911e-01

-5.000000000000000278e-02

1.250000000000000069e-02

1.499999999999999944e-02

4.250000000000000305e-02

2.000000000000000042e-02

1.024999999999999939e-01

1.799999999999999933e-01

1.499999999999999944e-01

5.249999999999999806e-02

7.499999999999999722e-03

2.249999999999999917e-02

1.174999999999999933e-01

3.049999999999999933e-01

4.249999999999999889e-01

4.099999999999999756e-01

3.674999999999999933e-01

1.174999999999999933e-01

-1.350000000000000089e-01

-1.424999999999999878e-01

1.499999999999999944e-02

2.525000000000000022e-01

4.324999999999999956e-01

3.900000000000000133e-01

3.350000000000000200e-01

2.924999999999999822e-01

3.599999999999999867e-01

5.400000000000000355e-01

6.524999999999999689e-01

7.650000000000000133e-01

8.774999999999999467e-01

9.675000000000000266e-01

9.575000000000000178e-01

7.724999999999999645e-01

6.424999999999999600e-01

5.474999999999999867e-01

4.324999999999999956e-01

4.324999999999999956e-01

3.350000000000000200e-01

8.749999999999999445e-02

5.249999999999999806e-02

2.249999999999999917e-02

-1.174999999999999933e-01

-1.724999999999999867e-01

-1.724999999999999867e-01

-2.149999999999999967e-01

-1.199999999999999956e-01

5.750000000000000250e-02

1.325000000000000067e-01

1.650000000000000078e-01

2.474999999999999978e-01

1.849999999999999978e-01

8.749999999999999445e-02

-1.049999999999999961e-01

-2.399999999999999911e-01

-2.074999999999999900e-01

-8.000000000000000167e-02

-1.474999999999999922e-01

-1.700000000000000122e-01

-1.625000000000000056e-01

-2.399999999999999911e-01

-3.225000000000000089e-01

-3.975000000000000200e-01

-3.825000000000000067e-01

-3.074999999999999956e-01

-2.550000000000000044e-01

-1.950000000000000067e-01

-1.125000000000000028e-01

-2.999999999999999889e-02

3.500000000000000333e-02

1.499999999999999944e-02

8.749999999999999445e-02

2.824999999999999734e-01

6.450000000000000178e-01

9.725000000000000311e-01

1.185000000000000053e+00

1.175000000000000044e+00

9.375000000000000000e-01

9.575000000000000178e-01

1.032499999999999973e+00

1.155000000000000027e+00

1.312500000000000000e+00

1.402500000000000080e+00

1.407499999999999973e+00

1.357499999999999929e+00

1.342500000000000027e+00

1.260000000000000009e+00

1.094999999999999973e+00

7.724999999999999645e-01

4.799999999999999822e-01

1.700000000000000122e-01

-1.024999999999999939e-01

-2.550000000000000044e-01

-3.724999999999999978e-01

-4.849999999999999867e-01

-5.775000000000000133e-01

-5.450000000000000400e-01

-4.050000000000000266e-01

-2.600000000000000089e-01

-9.750000000000000333e-02

-7.499999999999999722e-02

-9.750000000000000333e-02

-9.500000000000000111e-02

-3.049999999999999933e-01

-5.749999999999999556e-01

-7.425000000000000488e-01

-8.325000000000000178e-01

-8.024999999999999911e-01

-6.274999999999999467e-01

-4.724999999999999756e-01

-3.875000000000000111e-01

-2.700000000000000178e-01

-1.199999999999999956e-01

-3.150000000000000022e-01

-6.800000000000000488e-01

-9.124999999999999778e-01

-9.649999999999999689e-01

-7.850000000000000311e-01

-5.250000000000000222e-01

-3.375000000000000222e-01

-3.275000000000000133e-01

-4.199999999999999845e-01

-4.699999999999999734e-01

-5.250000000000000222e-01

-5.550000000000000488e-01

-5.300000000000000266e-01

-4.774999999999999800e-01

-3.074999999999999956e-01

-1.799999999999999933e-01

-1.799999999999999933e-01

-2.525000000000000022e-01

-4.025000000000000244e-01

-6.049999999999999822e-01

-5.474999999999999867e-01

-3.375000000000000222e-01

-1.799999999999999933e-01

-1.199999999999999956e-01

-9.500000000000000111e-02

-2.099999999999999922e-01

-2.775000000000000244e-01

-2.025000000000000133e-01

-8.999999999999999667e-02

5.249999999999999806e-02

2.374999999999999889e-01

4.249999999999999889e-01

4.324999999999999956e-01

1.774999999999999911e-01

-1.625000000000000056e-01

-2.999999999999999889e-01

-2.399999999999999911e-01

2.750000000000000014e-02

1.799999999999999933e-01

1.650000000000000078e-01

1.724999999999999867e-01

8.749999999999999445e-02

5.750000000000000250e-02

1.350000000000000089e-01

1.925000000000000044e-01

8.999999999999999667e-02

-2.750000000000000014e-02

-5.249999999999999806e-02

3.749999999999999861e-02

-2.249999999999999917e-02

-1.875000000000000000e-01

-2.550000000000000044e-01

-2.924999999999999822e-01

-2.399999999999999911e-01

-1.049999999999999961e-01

-3.749999999999999861e-02

-5.999999999999999778e-02

-2.750000000000000014e-02

2.750000000000000014e-02

5.999999999999999778e-02

2.249999999999999917e-02

-1.100000000000000006e-01

-1.650000000000000078e-01

-1.950000000000000067e-01

-9.500000000000000111e-02

8.749999999999999445e-02

1.400000000000000133e-01

1.875000000000000000e-01

1.424999999999999878e-01

0.000000000000000000e+00

-2.999999999999999889e-02

5.999999999999999778e-02

8.999999999999999667e-02

6.500000000000000222e-02

-8.250000000000000389e-02

-1.724999999999999867e-01

-1.250000000000000000e-01

-2.999999999999999889e-02

-6.750000000000000444e-02

-6.750000000000000444e-02

5.999999999999999778e-02

1.325000000000000067e-01

1.875000000000000000e-01

3.499999999999999778e-01

4.174999999999999822e-01

4.400000000000000022e-01

5.174999999999999600e-01

6.125000000000000444e-01

5.975000000000000311e-01

5.975000000000000311e-01

6.149999999999999911e-01

5.324999999999999734e-01

2.700000000000000178e-01

-5.999999999999999778e-02

-2.999999999999999889e-01

-3.225000000000000089e-01

-2.974999999999999867e-01

-2.750000000000000222e-01

-2.625000000000000111e-01

-2.899999999999999800e-01

-3.074999999999999956e-01

-3.350000000000000200e-01

-3.900000000000000133e-01

-4.249999999999999889e-01

-3.750000000000000000e-01

-3.300000000000000155e-01

-2.999999999999999889e-01

-3.350000000000000200e-01

-3.574999999999999845e-01

-4.099999999999999756e-01

-4.550000000000000155e-01

-4.349999999999999978e-01

-2.849999999999999756e-01

-2.625000000000000111e-01

-2.974999999999999867e-01

-4.025000000000000244e-01

-6.125000000000000444e-01

-7.500000000000000000e-01

-6.750000000000000444e-01

-5.324999999999999734e-01

-3.074999999999999956e-01

-2.099999999999999922e-01

-2.625000000000000111e-01

-3.950000000000000178e-01

-4.575000000000000178e-01

-4.199999999999999845e-01

-3.975000000000000200e-01

-5.024999999999999467e-01

-4.249999999999999889e-01

-2.775000000000000244e-01

-2.074999999999999900e-01

2.750000000000000014e-02

3.225000000000000089e-01

5.250000000000000222e-01

7.349999999999999867e-01

9.725000000000000311e-01

1.137499999999999956e+00

1.229999999999999982e+00

1.297500000000000098e+00

1.347499999999999920e+00

1.274999999999999911e+00

1.064999999999999947e+00

1.070000000000000062e+00

1.294999999999999929e+00

1.530000000000000027e+00

1.429999999999999938e+00

1.077499999999999902e+00

5.975000000000000311e-01

2.325000000000000122e-01

-2.149999999999999967e-01

-5.975000000000000311e-01

-9.124999999999999778e-01

-1.054999999999999938e+00

-1.012499999999999956e+00

-8.249999999999999556e-01

-7.275000000000000355e-01

-7.125000000000000222e-01

-7.924999999999999822e-01

-8.325000000000000178e-01

-7.249999999999999778e-01

-7.199999999999999734e-01

-7.025000000000000133e-01

-7.025000000000000133e-01

-6.899999999999999467e-01

-6.650000000000000355e-01

-6.574999999999999734e-01

-6.225000000000000533e-01

-6.225000000000000533e-01

-6.424999999999999600e-01

-6.450000000000000178e-01

-6.650000000000000355e-01

-5.925000000000000266e-01

-4.949999999999999956e-01

-4.625000000000000222e-01

-3.975000000000000200e-01

-3.375000000000000222e-01

-4.849999999999999867e-01

-6.800000000000000488e-01

-7.249999999999999778e-01

-8.100000000000000533e-01

-8.774999999999999467e-01

-8.699999999999999956e-01

-8.924999999999999600e-01

-7.874999999999999778e-01

-6.350000000000000089e-01

-7.025000000000000133e-01

-8.850000000000000089e-01

-9.124999999999999778e-01

-8.900000000000000133e-01

-7.650000000000000133e-01

-6.075000000000000400e-01

-4.874999999999999889e-01

-4.124999999999999778e-01

-2.775000000000000244e-01

-1.499999999999999944e-01

-1.024999999999999939e-01

-1.024999999999999939e-01

-9.500000000000000111e-02

3.749999999999999861e-02

1.575000000000000011e-01

2.000000000000000111e-01

2.550000000000000044e-01

2.675000000000000155e-01

2.974999999999999867e-01

3.225000000000000089e-01

2.924999999999999822e-01

1.875000000000000000e-01

7.499999999999999722e-02

-1.549999999999999989e-01

-2.449999999999999956e-01

-2.099999999999999922e-01

-1.400000000000000133e-01

-2.750000000000000014e-02

7.499999999999999722e-03

2.750000000000000014e-02

5.249999999999999806e-02

5.999999999999999778e-02

6.750000000000000444e-02

9.750000000000000333e-02

5.750000000000000250e-02

3.749999999999999861e-02

7.249999999999999500e-02

1.925000000000000044e-01

3.125000000000000000e-01

3.200000000000000067e-01

3.300000000000000155e-01

2.849999999999999756e-01

1.650000000000000078e-01

-9.500000000000000111e-02

-2.300000000000000100e-01

-2.325000000000000122e-01

-2.525000000000000022e-01

-2.099999999999999922e-01

-2.999999999999999889e-02

2.750000000000000014e-02

3.749999999999999861e-02

8.000000000000000167e-02

1.250000000000000069e-02

-5.249999999999999806e-02

-2.999999999999999889e-02

4.250000000000000305e-02

1.100000000000000006e-01

1.049999999999999961e-01

1.474999999999999922e-01

1.875000000000000000e-01

2.974999999999999867e-01

4.650000000000000244e-01

5.999999999999999778e-01

6.149999999999999911e-01

5.024999999999999467e-01

2.025000000000000133e-01

1.499999999999999944e-02

5.249999999999999806e-02

9.750000000000000333e-02

3.749999999999999861e-02

1.499999999999999944e-01

2.824999999999999734e-01

3.649999999999999911e-01

5.324999999999999734e-01

6.600000000000000311e-01

6.524999999999999689e-01

5.675000000000000044e-01

5.625000000000000000e-01

5.400000000000000355e-01

4.349999999999999978e-01

3.125000000000000000e-01

2.974999999999999867e-01

3.074999999999999956e-01

2.550000000000000044e-01

1.474999999999999922e-01

1.325000000000000067e-01

8.749999999999999445e-02

1.499999999999999944e-02

4.499999999999999833e-02

1.024999999999999939e-01

7.249999999999999500e-02

-9.750000000000000333e-02

-3.275000000000000133e-01

-4.174999999999999822e-01

-3.724999999999999978e-01

-3.125000000000000000e-01

-1.650000000000000078e-01

-1.100000000000000006e-01

-1.125000000000000028e-01

-8.999999999999999667e-02

-1.024999999999999939e-01

-2.174999999999999989e-01

-2.600000000000000089e-01

-2.099999999999999922e-01

-4.250000000000000305e-02

1.325000000000000067e-01

8.749999999999999445e-02

-2.474999999999999978e-01

-4.050000000000000266e-01

-3.825000000000000067e-01

-3.350000000000000200e-01

-2.849999999999999756e-01

-2.525000000000000022e-01

-2.250000000000000056e-01

-2.550000000000000044e-01

-1.174999999999999933e-01

1.499999999999999944e-02

1.350000000000000089e-01

3.074999999999999956e-01

5.975000000000000311e-01

8.325000000000000178e-01

1.042499999999999982e+00

1.250000000000000000e+00

1.415000000000000036e+00

1.514999999999999902e+00

1.550000000000000044e+00

1.402500000000000080e+00

1.267500000000000071e+00

1.242499999999999938e+00

1.320000000000000062e+00

1.469999999999999973e+00

1.514999999999999902e+00

1.260000000000000009e+00

8.249999999999999556e-01

4.249999999999999889e-01

1.125000000000000028e-01

-1.724999999999999867e-01

-3.375000000000000222e-01

-4.475000000000000089e-01

-4.799999999999999822e-01

-4.174999999999999822e-01

-4.099999999999999756e-01

-5.074999999999999512e-01

-7.049999999999999600e-01

-8.924999999999999600e-01

-8.824999999999999512e-01

-8.100000000000000533e-01

-6.600000000000000311e-01

-5.250000000000000222e-01

-5.450000000000000400e-01

-5.775000000000000133e-01

-5.699999999999999512e-01

-6.374999999999999556e-01

-6.350000000000000089e-01

-5.675000000000000044e-01

-5.550000000000000488e-01

-5.300000000000000266e-01

-5.024999999999999467e-01

-4.349999999999999978e-01

-3.975000000000000200e-01

-3.975000000000000200e-01

-3.375000000000000222e-01

-3.375000000000000222e-01

-4.124999999999999778e-01

-4.625000000000000222e-01

-5.749999999999999556e-01

-6.524999999999999689e-01

-8.225000000000000089e-01

-9.649999999999999689e-01

-8.824999999999999512e-01

-7.349999999999999867e-01

-6.274999999999999467e-01

-5.600000000000000533e-01

-5.749999999999999556e-01

-5.975000000000000311e-01

-5.300000000000000266e-01

-4.199999999999999845e-01

-3.225000000000000089e-01

-2.849999999999999756e-01

-2.449999999999999956e-01

-1.350000000000000089e-01

-5.750000000000000250e-02

5.000000000000000104e-03

2.750000000000000014e-02

6.500000000000000222e-02

1.049999999999999961e-01

9.500000000000000111e-02

1.325000000000000067e-01

2.074999999999999900e-01

2.325000000000000122e-01

2.000000000000000111e-01

1.650000000000000078e-01

1.174999999999999933e-01

1.125000000000000028e-01

1.950000000000000067e-01

2.250000000000000056e-01

2.374999999999999889e-01

2.325000000000000122e-01

2.225000000000000033e-01

9.750000000000000333e-02

7.499999999999999722e-03

3.500000000000000333e-02

4.250000000000000305e-02

6.500000000000000222e-02

1.174999999999999933e-01

1.125000000000000028e-01

3.500000000000000333e-02

2.249999999999999917e-02

4.250000000000000305e-02

2.249999999999999917e-02

8.999999999999999667e-02

8.749999999999999445e-02

6.750000000000000444e-02

5.750000000000000250e-02

4.250000000000000305e-02

1.100000000000000006e-01

2.325000000000000122e-01

2.600000000000000089e-01

2.675000000000000155e-01

2.675000000000000155e-01

1.700000000000000122e-01

-6.750000000000000444e-02

-1.275000000000000022e-01

-1.549999999999999989e-01

-1.325000000000000067e-01

-2.249999999999999917e-02

-2.750000000000000014e-02

5.000000000000000104e-03

6.750000000000000444e-02

1.125000000000000028e-01

1.125000000000000028e-01

1.250000000000000000e-01

1.549999999999999989e-01

2.449999999999999956e-01

2.600000000000000089e-01

2.750000000000000222e-01

2.824999999999999734e-01

2.849999999999999756e-01

3.375000000000000222e-01

4.249999999999999889e-01

5.400000000000000355e-01

6.975000000000000089e-01

8.625000000000000444e-01

9.575000000000000178e-01

9.350000000000000533e-01

7.774999999999999689e-01

4.849999999999999867e-01

2.474999999999999978e-01

1.325000000000000067e-01

3.500000000000000333e-02

5.249999999999999806e-02

8.250000000000000389e-02

7.499999999999999722e-02

7.499999999999999722e-02

8.999999999999999667e-02

7.499999999999999722e-02

7.499999999999999722e-03

-1.049999999999999961e-01

-1.350000000000000089e-01

-1.250000000000000000e-01

-1.275000000000000022e-01

-1.250000000000000000e-01

-2.300000000000000100e-01

-2.775000000000000244e-01

-2.775000000000000244e-01

-2.550000000000000044e-01

-1.925000000000000044e-01

-1.575000000000000011e-01

-1.549999999999999989e-01

-1.799999999999999933e-01

-1.774999999999999911e-01

-1.549999999999999989e-01

-1.650000000000000078e-01

-2.074999999999999900e-01

-2.625000000000000111e-01

-2.999999999999999889e-01

-2.525000000000000022e-01

-1.875000000000000000e-01

-2.675000000000000155e-01

-3.225000000000000089e-01

-3.674999999999999933e-01

-3.975000000000000200e-01

-4.025000000000000244e-01

-4.174999999999999822e-01

-3.950000000000000178e-01

-2.300000000000000100e-01

-2.999999999999999889e-02

1.774999999999999911e-01

3.225000000000000089e-01

5.250000000000000222e-01

8.225000000000000089e-01

9.649999999999999689e-01

1.147499999999999964e+00

1.242499999999999938e+00

1.287500000000000089e+00

1.372500000000000053e+00

1.370000000000000107e+00

1.257500000000000062e+00

1.207500000000000018e+00

1.342500000000000027e+00

1.620000000000000107e+00

1.672500000000000098e+00

1.272499999999999964e+00

7.800000000000000266e-01

2.999999999999999889e-01

-1.049999999999999961e-01

-4.025000000000000244e-01

-5.925000000000000266e-01

-6.650000000000000355e-01

-6.949999999999999512e-01

-6.350000000000000089e-01

-5.675000000000000044e-01

-5.849999999999999645e-01

-6.075000000000000400e-01

-6.674999999999999822e-01

-6.824999999999999956e-01

-6.300000000000000044e-01

-6.274999999999999467e-01

-7.199999999999999734e-01

-7.850000000000000311e-01

-8.225000000000000089e-01

-8.149999999999999467e-01

-7.500000000000000000e-01

-6.875000000000000000e-01

-6.750000000000000444e-01

-7.275000000000000355e-01

-6.899999999999999467e-01

-6.049999999999999822e-01

-6.350000000000000089e-01

-6.724999999999999867e-01

-6.674999999999999822e-01

-6.374999999999999556e-01

-6.225000000000000533e-01

-6.724999999999999867e-01

-7.399999999999999911e-01

-7.924999999999999822e-01

-7.500000000000000000e-01

-6.824999999999999956e-01

-6.975000000000000089e-01

-7.199999999999999734e-01

-7.175000000000000266e-01

-7.199999999999999734e-01

-7.199999999999999734e-01

-6.824999999999999956e-01

-6.274999999999999467e-01

-6.049999999999999822e-01

-5.775000000000000133e-01

-5.400000000000000355e-01

-4.550000000000000155e-01

-3.649999999999999911e-01

-2.399999999999999911e-01

-1.474999999999999922e-01

-1.400000000000000133e-01

-1.400000000000000133e-01

-7.249999999999999500e-02

7.499999999999999722e-03

4.250000000000000305e-02

1.199999999999999956e-01

2.099999999999999922e-01

2.074999999999999900e-01

1.650000000000000078e-01

9.500000000000000111e-02

8.000000000000000167e-02

8.250000000000000389e-02

1.024999999999999939e-01

5.999999999999999778e-02

7.499999999999999722e-03

5.000000000000000104e-03

5.000000000000000278e-02

4.250000000000000305e-02

1.499999999999999944e-02

1.250000000000000069e-02

-3.749999999999999861e-02

-2.249999999999999917e-02

1.250000000000000069e-02

-2.999999999999999889e-02

3.500000000000000333e-02

8.749999999999999445e-02

9.500000000000000111e-02

1.400000000000000133e-01

1.650000000000000078e-01

1.575000000000000011e-01

1.350000000000000089e-01

1.575000000000000011e-01

1.499999999999999944e-01

1.325000000000000067e-01

1.049999999999999961e-01

5.999999999999999778e-02

-5.249999999999999806e-02

-1.325000000000000067e-01

-5.750000000000000250e-02

1.250000000000000069e-02

-2.000000000000000042e-02

2.750000000000000014e-02

3.749999999999999861e-02

7.499999999999999722e-03

1.499999999999999944e-02

1.250000000000000069e-02

-2.750000000000000014e-02

5.000000000000000278e-02

1.575000000000000011e-01

2.775000000000000244e-01

4.174999999999999822e-01

4.849999999999999867e-01

4.650000000000000244e-01

3.425000000000000266e-01

3.049999999999999933e-01

3.225000000000000089e-01

3.825000000000000067e-01

4.475000000000000089e-01

4.924999999999999933e-01

5.999999999999999778e-01

7.175000000000000266e-01

7.774999999999999689e-01

8.774999999999999467e-01

8.599999999999999867e-01

7.325000000000000400e-01

7.049999999999999600e-01

5.699999999999999512e-01

2.675000000000000155e-01

6.750000000000000444e-02

4.499999999999999833e-02

1.325000000000000067e-01

2.525000000000000022e-01

3.125000000000000000e-01

2.325000000000000122e-01

1.700000000000000122e-01

1.499999999999999944e-01

1.199999999999999956e-01

1.400000000000000133e-01

1.724999999999999867e-01

9.750000000000000333e-02

8.749999999999999445e-02

2.000000000000000111e-01

1.275000000000000022e-01

-6.500000000000000222e-02

-2.025000000000000133e-01

-3.649999999999999911e-01

-3.950000000000000178e-01

-2.899999999999999800e-01

-1.474999999999999922e-01

-1.100000000000000006e-01

-1.049999999999999961e-01

-6.750000000000000444e-02

7.499999999999999722e-03

7.499999999999999722e-02

9.750000000000000333e-02

8.250000000000000389e-02

-3.500000000000000333e-02

-1.275000000000000022e-01

-1.799999999999999933e-01

-1.950000000000000067e-01

-1.275000000000000022e-01

-1.174999999999999933e-01

-5.000000000000000278e-02

2.249999999999999917e-02

1.250000000000000000e-01

2.449999999999999956e-01

4.500000000000000111e-01

6.824999999999999956e-01

8.299999999999999600e-01

9.749999999999999778e-01

1.252499999999999947e+00

1.377499999999999947e+00

1.497500000000000053e+00

1.574999999999999956e+00

1.582500000000000018e+00

1.332500000000000018e+00

1.107499999999999929e+00

1.057500000000000107e+00

1.152500000000000080e+00

1.377499999999999947e+00

1.439999999999999947e+00

1.252499999999999947e+00

7.700000000000000178e-01

2.899999999999999800e-01

2.999999999999999889e-02

-8.999999999999999667e-02

-1.724999999999999867e-01

-2.625000000000000111e-01

-3.449999999999999734e-01

-5.074999999999999512e-01

-5.899999999999999689e-01

-5.024999999999999467e-01

-3.649999999999999911e-01

-2.775000000000000244e-01

-2.924999999999999822e-01

-2.074999999999999900e-01

-3.125000000000000000e-01

-4.475000000000000089e-01

-5.975000000000000311e-01

-7.249999999999999778e-01

-7.249999999999999778e-01

-6.800000000000000488e-01

-5.675000000000000044e-01

-5.300000000000000266e-01

-4.874999999999999889e-01

-4.050000000000000266e-01

-3.649999999999999911e-01

-3.649999999999999911e-01

-3.975000000000000200e-01

-4.274999999999999911e-01

-3.875000000000000111e-01

-3.074999999999999956e-01

-3.875000000000000111e-01

-4.625000000000000222e-01

-3.975000000000000200e-01

-3.125000000000000000e-01

-3.499999999999999778e-01

-5.550000000000000488e-01

-7.650000000000000133e-01

-7.425000000000000488e-01

-6.750000000000000444e-01

-5.550000000000000488e-01

-4.124999999999999778e-01

-3.649999999999999911e-01

-3.574999999999999845e-01

-3.275000000000000133e-01

-2.399999999999999911e-01

-1.875000000000000000e-01

-2.025000000000000133e-01

-1.275000000000000022e-01

2.999999999999999889e-02

1.799999999999999933e-01

2.999999999999999889e-01

4.475000000000000089e-01

5.000000000000000000e-01

3.275000000000000133e-01

2.250000000000000056e-01

8.000000000000000167e-02

9.500000000000000111e-02

2.474999999999999978e-01

1.799999999999999933e-01

1.875000000000000000e-01

2.849999999999999756e-01

2.625000000000000111e-01

1.499999999999999944e-01

4.499999999999999833e-02

-4.499999999999999833e-02

-2.149999999999999967e-01

-1.474999999999999922e-01

1.049999999999999961e-01

2.099999999999999922e-01

2.775000000000000244e-01

2.999999999999999889e-01

2.750000000000000222e-01

2.000000000000000111e-01

1.724999999999999867e-01

2.474999999999999978e-01

3.900000000000000133e-01

4.699999999999999734e-01

3.649999999999999911e-01

2.374999999999999889e-01

5.999999999999999778e-02

5.000000000000000104e-03

9.500000000000000111e-02

9.750000000000000333e-02

4.250000000000000305e-02

0.000000000000000000e+00

8.749999999999999445e-02

1.774999999999999911e-01

2.300000000000000100e-01

7.249999999999999500e-02

2.999999999999999889e-02

7.499999999999999722e-02

2.999999999999999889e-02

2.750000000000000014e-02

5.999999999999999778e-02

8.250000000000000389e-02

2.250000000000000056e-01

4.174999999999999822e-01

5.150000000000000133e-01

4.724999999999999756e-01

3.300000000000000155e-01

2.325000000000000122e-01

1.875000000000000000e-01

2.374999999999999889e-01

3.275000000000000133e-01

3.499999999999999778e-01

4.475000000000000089e-01

4.874999999999999889e-01

5.699999999999999512e-01

7.175000000000000266e-01

7.425000000000000488e-01

6.374999999999999556e-01

5.300000000000000266e-01

4.575000000000000178e-01

4.349999999999999978e-01

4.425000000000000044e-01

4.249999999999999889e-01

3.750000000000000000e-01

2.999999999999999889e-01

2.700000000000000178e-01

2.325000000000000122e-01

2.399999999999999911e-01

2.025000000000000133e-01

8.749999999999999445e-02

-3.500000000000000333e-02

-5.999999999999999778e-02

-5.750000000000000250e-02

5.000000000000000104e-03

-6.750000000000000444e-02

-1.275000000000000022e-01

-1.950000000000000067e-01

-2.399999999999999911e-01

-3.425000000000000266e-01

-3.300000000000000155e-01

-3.275000000000000133e-01

-3.275000000000000133e-01

-2.600000000000000089e-01

-2.225000000000000033e-01

-2.000000000000000111e-01

-2.300000000000000100e-01

-2.325000000000000122e-01

-2.174999999999999989e-01

-2.449999999999999956e-01

-2.675000000000000155e-01

-3.375000000000000222e-01

-3.375000000000000222e-01

-2.899999999999999800e-01

-2.750000000000000222e-01

-1.700000000000000122e-01

-8.999999999999999667e-02

-3.749999999999999861e-02

-6.500000000000000222e-02

-9.750000000000000333e-02

-2.999999999999999889e-02

9.500000000000000111e-02

2.974999999999999867e-01

5.849999999999999645e-01

7.774999999999999689e-01

8.549999999999999822e-01

9.224999999999999867e-01

1.004999999999999893e+00

1.100000000000000089e+00

1.185000000000000053e+00

1.162500000000000089e+00

1.054999999999999938e+00

9.425000000000000044e-01

9.300000000000000488e-01

1.100000000000000089e+00

1.317499999999999893e+00

1.294999999999999929e+00

8.924999999999999600e-01

4.099999999999999756e-01

5.000000000000000278e-02

-2.099999999999999922e-01

-3.449999999999999734e-01

-4.099999999999999756e-01

-4.774999999999999800e-01

-6.524999999999999689e-01

-8.149999999999999467e-01

-8.824999999999999512e-01

-9.124999999999999778e-01

-8.175000000000000044e-01

-6.899999999999999467e-01

-6.149999999999999911e-01

-6.149999999999999911e-01

-6.975000000000000089e-01

-7.399999999999999911e-01

-6.899999999999999467e-01

-7.275000000000000355e-01

-7.550000000000000044e-01

-6.949999999999999512e-01

-6.574999999999999734e-01

-6.350000000000000089e-01

-6.225000000000000533e-01

-6.600000000000000311e-01

-6.650000000000000355e-01

-7.049999999999999600e-01

-7.199999999999999734e-01

-5.675000000000000044e-01

-4.650000000000000244e-01

-4.575000000000000178e-01

-4.550000000000000155e-01

-4.425000000000000044e-01

-5.849999999999999645e-01

-7.724999999999999645e-01

-8.924999999999999600e-01

-1.062500000000000000e+00

-1.122500000000000053e+00

-1.012499999999999956e+00

-8.750000000000000000e-01

-7.924999999999999822e-01

-6.274999999999999467e-01

-5.174999999999999600e-01

-4.025000000000000244e-01

-3.875000000000000111e-01

-5.100000000000000089e-01

-5.749999999999999556e-01

-5.374999999999999778e-01

-3.975000000000000200e-01

-2.525000000000000022e-01

-2.000000000000000111e-01

-1.724999999999999867e-01

-1.575000000000000011e-01

-8.000000000000000167e-02

5.000000000000000104e-03

8.250000000000000389e-02

8.999999999999999667e-02

7.499999999999999722e-02

1.024999999999999939e-01

1.174999999999999933e-01

7.249999999999999500e-02

5.750000000000000250e-02

7.249999999999999500e-02

1.625000000000000056e-01

1.875000000000000000e-01

2.074999999999999900e-01

2.750000000000000222e-01

2.625000000000000111e-01

1.650000000000000078e-01

1.125000000000000028e-01

7.499999999999999722e-02

2.750000000000000014e-02

-1.499999999999999944e-01

-2.625000000000000111e-01

-2.474999999999999978e-01

-2.225000000000000033e-01

-1.424999999999999878e-01

-5.249999999999999806e-02

1.049999999999999961e-01

1.174999999999999933e-01

8.749999999999999445e-02

1.250000000000000069e-02

-8.749999999999999445e-02

-1.774999999999999911e-01

-1.350000000000000089e-01

-4.250000000000000305e-02

2.249999999999999917e-02

2.000000000000000042e-02

6.750000000000000444e-02

8.000000000000000167e-02

2.000000000000000042e-02

0.000000000000000000e+00

-2.249999999999999917e-02

8.749999999999999445e-02

2.000000000000000111e-01

2.600000000000000089e-01

2.225000000000000033e-01

1.199999999999999956e-01

8.000000000000000167e-02

8.250000000000000389e-02

1.474999999999999922e-01

2.675000000000000155e-01

3.574999999999999845e-01

3.200000000000000067e-01

1.925000000000000044e-01

9.500000000000000111e-02

5.000000000000000278e-02

9.750000000000000333e-02

2.325000000000000122e-01

4.099999999999999756e-01

5.250000000000000222e-01

4.849999999999999867e-01

5.174999999999999600e-01

6.975000000000000089e-01

6.899999999999999467e-01

6.500000000000000222e-01

5.849999999999999645e-01

4.625000000000000222e-01

3.524999999999999800e-01

3.200000000000000067e-01

3.275000000000000133e-01

3.300000000000000155e-01

2.849999999999999756e-01

2.849999999999999756e-01

2.775000000000000244e-01

3.749999999999999861e-02

-2.700000000000000178e-01

-3.375000000000000222e-01

-3.300000000000000155e-01

-3.049999999999999933e-01

-2.174999999999999989e-01

-1.625000000000000056e-01

-2.399999999999999911e-01

-2.824999999999999734e-01

-3.275000000000000133e-01

-3.375000000000000222e-01

-2.600000000000000089e-01

-2.300000000000000100e-01

-2.149999999999999967e-01

-2.149999999999999967e-01

-2.399999999999999911e-01

-2.525000000000000022e-01

-2.474999999999999978e-01

-2.750000000000000222e-01

-2.250000000000000056e-01

-2.025000000000000133e-01

-1.499999999999999944e-01

-8.749999999999999445e-02

-1.049999999999999961e-01

-8.000000000000000167e-02

2.000000000000000042e-02

-1.849999999999999978e-01

-2.775000000000000244e-01

-2.824999999999999734e-01

-2.399999999999999911e-01

-1.275000000000000022e-01

5.999999999999999778e-02

2.974999999999999867e-01

5.975000000000000311e-01

8.074999999999999956e-01

9.825000000000000400e-01

1.162500000000000089e+00

1.282499999999999973e+00

1.432500000000000107e+00

1.537500000000000089e+00

1.429999999999999938e+00

1.139999999999999902e+00

1.027500000000000080e+00

1.207500000000000018e+00

1.504999999999999893e+00

1.597499999999999920e+00

1.334999999999999964e+00

8.225000000000000089e-01

3.300000000000000155e-01

-5.249999999999999806e-02

-3.724999999999999978e-01

-5.324999999999999734e-01

-6.650000000000000355e-01

-6.450000000000000178e-01

-5.374999999999999778e-01

-4.400000000000000022e-01

-4.400000000000000022e-01

-6.149999999999999911e-01

-6.949999999999999512e-01

-6.500000000000000222e-01

-6.875000000000000000e-01

-7.325000000000000400e-01

-7.550000000000000044e-01

-7.049999999999999600e-01

-5.775000000000000133e-01

-5.524999999999999911e-01

-5.550000000000000488e-01

-5.400000000000000355e-01

-4.799999999999999822e-01

-4.324999999999999956e-01

-4.050000000000000266e-01

-4.124999999999999778e-01

-4.924999999999999933e-01

-7.099999999999999645e-01

-7.724999999999999645e-01

-6.350000000000000089e-01

-5.374999999999999778e-01

-4.924999999999999933e-01

-5.400000000000000355e-01

-7.950000000000000400e-01

-9.124999999999999778e-01

-9.224999999999999867e-01

-9.150000000000000355e-01

-9.000000000000000222e-01

-8.549999999999999822e-01

-7.774999999999999689e-01

-7.325000000000000400e-01

-7.099999999999999645e-01

-7.125000000000000222e-01

-6.750000000000000444e-01

-5.474999999999999867e-01

-4.724999999999999756e-01

-4.124999999999999778e-01

-3.350000000000000200e-01

-1.549999999999999989e-01

1.024999999999999939e-01

2.675000000000000155e-01

2.999999999999999889e-01

2.300000000000000100e-01

1.275000000000000022e-01

-1.049999999999999961e-01

-3.200000000000000067e-01

-2.899999999999999800e-01

-8.999999999999999667e-02

6.500000000000000222e-02

1.549999999999999989e-01

1.275000000000000022e-01

2.999999999999999889e-02

-5.999999999999999778e-02

2.999999999999999889e-02

1.024999999999999939e-01

1.625000000000000056e-01

1.575000000000000011e-01

1.275000000000000022e-01

1.174999999999999933e-01

1.650000000000000078e-01

1.250000000000000000e-01

6.500000000000000222e-02

7.499999999999999722e-03

-5.999999999999999778e-02

-2.999999999999999889e-02

8.999999999999999667e-02

1.499999999999999944e-01

9.500000000000000111e-02

0.000000000000000000e+00

-3.749999999999999861e-02

0.000000000000000000e+00

-5.999999999999999778e-02

-4.499999999999999833e-02

5.000000000000000104e-03

7.499999999999999722e-03

0.000000000000000000e+00

5.000000000000000104e-03

-2.249999999999999917e-02

1.499999999999999944e-02

6.750000000000000444e-02

1.174999999999999933e-01

9.750000000000000333e-02

7.499999999999999722e-02

8.749999999999999445e-02

1.174999999999999933e-01

1.424999999999999878e-01

1.424999999999999878e-01

6.500000000000000222e-02

2.999999999999999889e-02

6.750000000000000444e-02

5.249999999999999806e-02

5.249999999999999806e-02

8.999999999999999667e-02

2.074999999999999900e-01

2.924999999999999822e-01

3.125000000000000000e-01

2.750000000000000222e-01

2.250000000000000056e-01

2.174999999999999989e-01

3.350000000000000200e-01

4.949999999999999956e-01

5.775000000000000133e-01

5.675000000000000044e-01

5.899999999999999689e-01

6.149999999999999911e-01

6.225000000000000533e-01

5.400000000000000355e-01

5.100000000000000089e-01

4.650000000000000244e-01

3.800000000000000044e-01

2.700000000000000178e-01

1.774999999999999911e-01

1.174999999999999933e-01

5.750000000000000250e-02

-6.750000000000000444e-02

-1.424999999999999878e-01

-2.174999999999999989e-01

-2.899999999999999800e-01

-3.049999999999999933e-01

-3.049999999999999933e-01

-3.350000000000000200e-01

-3.449999999999999734e-01

-3.049999999999999933e-01

-2.625000000000000111e-01

-2.325000000000000122e-01

-2.325000000000000122e-01

-2.099999999999999922e-01

-2.149999999999999967e-01

-2.449999999999999956e-01

-3.049999999999999933e-01

-3.150000000000000022e-01

-2.600000000000000089e-01

-2.149999999999999967e-01

-2.074999999999999900e-01

-1.549999999999999989e-01

-8.000000000000000167e-02

-5.750000000000000250e-02

-1.650000000000000078e-01

-2.849999999999999756e-01

-4.124999999999999778e-01

-4.625000000000000222e-01

-5.000000000000000000e-01

-4.575000000000000178e-01

-4.849999999999999867e-01

-4.324999999999999956e-01

-2.099999999999999922e-01

2.249999999999999917e-02

2.374999999999999889e-01

4.724999999999999756e-01

5.975000000000000311e-01

6.225000000000000533e-01

7.950000000000000400e-01

1.004999999999999893e+00

1.137499999999999956e+00

1.237500000000000044e+00

1.192499999999999893e+00

1.002499999999999947e+00

8.924999999999999600e-01

9.725000000000000311e-01

1.192499999999999893e+00

1.347499999999999920e+00

1.185000000000000053e+00

7.724999999999999645e-01

3.425000000000000266e-01

-4.499999999999999833e-02

-3.225000000000000089e-01

-5.400000000000000355e-01

-6.800000000000000488e-01

-7.425000000000000488e-01

-7.249999999999999778e-01

-6.374999999999999556e-01

-5.749999999999999556e-01

-5.925000000000000266e-01

-6.225000000000000533e-01

-5.925000000000000266e-01

-6.424999999999999600e-01

-7.249999999999999778e-01

-7.574999999999999512e-01

-7.325000000000000400e-01

-8.399999999999999689e-01

-8.774999999999999467e-01

-8.599999999999999867e-01

-8.100000000000000533e-01

-7.800000000000000266e-01

-8.000000000000000444e-01

-8.599999999999999867e-01

-8.824999999999999512e-01

-8.774999999999999467e-01

-7.800000000000000266e-01

-7.049999999999999600e-01

-7.199999999999999734e-01

-7.049999999999999600e-01

-7.399999999999999911e-01

-8.149999999999999467e-01

-8.549999999999999822e-01

-8.475000000000000311e-01

-8.074999999999999956e-01

-8.074999999999999956e-01

-8.399999999999999689e-01

-8.750000000000000000e-01

-8.675000000000000488e-01

-7.724999999999999645e-01

-7.325000000000000400e-01

-7.275000000000000355e-01

-7.475000000000000533e-01

-7.199999999999999734e-01

-6.650000000000000355e-01

-5.775000000000000133e-01

-4.400000000000000022e-01

-3.649999999999999911e-01

-3.599999999999999867e-01

-3.574999999999999845e-01

-3.074999999999999956e-01

-2.899999999999999800e-01

-2.474999999999999978e-01

-1.424999999999999878e-01

-1.700000000000000122e-01

-1.400000000000000133e-01

-7.499999999999999722e-02

-8.749999999999999445e-02

-7.499999999999999722e-02

-2.249999999999999917e-02

1.250000000000000069e-02

-2.999999999999999889e-02

-7.499999999999999722e-02

-1.125000000000000028e-01

-1.325000000000000067e-01

-9.750000000000000333e-02

-8.000000000000000167e-02

-6.500000000000000222e-02

-8.749999999999999445e-02

-7.499999999999999722e-02

5.000000000000000104e-03

4.250000000000000305e-02

5.999999999999999778e-02

3.749999999999999861e-02

-4.499999999999999833e-02

-3.500000000000000333e-02

4.499999999999999833e-02

-2.750000000000000014e-02

-2.025000000000000133e-01

-3.074999999999999956e-01

-2.824999999999999734e-01

-2.250000000000000056e-01

-1.650000000000000078e-01

-1.275000000000000022e-01

-1.700000000000000122e-01

-1.724999999999999867e-01

-5.999999999999999778e-02

1.499999999999999944e-02

0.000000000000000000e+00

-2.999999999999999889e-02

7.249999999999999500e-02

1.125000000000000028e-01

0.000000000000000000e+00

-9.500000000000000111e-02

-2.374999999999999889e-01

-3.524999999999999800e-01

-3.225000000000000089e-01

-2.149999999999999967e-01

-1.350000000000000089e-01

-6.750000000000000444e-02

2.999999999999999889e-02

5.999999999999999778e-02

1.549999999999999989e-01

2.625000000000000111e-01

2.999999999999999889e-01

3.150000000000000022e-01

3.350000000000000200e-01

3.900000000000000133e-01

4.174999999999999822e-01

5.400000000000000355e-01

6.350000000000000089e-01

6.750000000000000444e-01

7.574999999999999512e-01

7.199999999999999734e-01

5.925000000000000266e-01

4.050000000000000266e-01

2.999999999999999889e-01

2.824999999999999734e-01

1.950000000000000067e-01

1.174999999999999933e-01

6.750000000000000444e-02

2.249999999999999917e-02

-5.750000000000000250e-02

7.499999999999999722e-03

0.000000000000000000e+00

-6.500000000000000222e-02

-9.500000000000000111e-02

-1.799999999999999933e-01

-2.924999999999999822e-01

-2.924999999999999822e-01

-2.625000000000000111e-01

-2.474999999999999978e-01

-1.849999999999999978e-01

-1.774999999999999911e-01

-1.799999999999999933e-01

-1.950000000000000067e-01

-2.250000000000000056e-01

-2.675000000000000155e-01

-2.824999999999999734e-01

-2.149999999999999967e-01

-1.424999999999999878e-01

-1.400000000000000133e-01

-1.724999999999999867e-01

-2.000000000000000111e-01

-1.925000000000000044e-01

-1.350000000000000089e-01

-1.199999999999999956e-01

-1.549999999999999989e-01

-2.074999999999999900e-01

-1.950000000000000067e-01

-2.000000000000000111e-01

-2.325000000000000122e-01

-2.600000000000000089e-01

-2.000000000000000111e-01

0.000000000000000000e+00

2.374999999999999889e-01

5.474999999999999867e-01

7.724999999999999645e-01

8.850000000000000089e-01

1.010000000000000009e+00

1.087499999999999911e+00

1.167499999999999982e+00

1.250000000000000000e+00

1.372500000000000053e+00

1.332500000000000018e+00

1.212499999999999911e+00

1.117499999999999938e+00

1.077499999999999902e+00

1.205000000000000071e+00

1.402500000000000080e+00

1.267500000000000071e+00

8.475000000000000311e-01

3.825000000000000067e-01

2.750000000000000014e-02

-2.700000000000000178e-01

-3.599999999999999867e-01

-4.475000000000000089e-01

-5.550000000000000488e-01

-5.699999999999999512e-01

-5.450000000000000400e-01

-5.450000000000000400e-01

-4.699999999999999734e-01

-3.750000000000000000e-01

-3.150000000000000022e-01

-3.449999999999999734e-01

-4.324999999999999956e-01

-5.675000000000000044e-01

-6.524999999999999689e-01

-6.374999999999999556e-01

-5.825000000000000178e-01

-5.600000000000000533e-01

-5.324999999999999734e-01

-5.749999999999999556e-01

-5.825000000000000178e-01

-5.849999999999999645e-01

-5.899999999999999689e-01

-5.300000000000000266e-01

-5.024999999999999467e-01

-4.849999999999999867e-01

-5.174999999999999600e-01

-4.475000000000000089e-01

-3.225000000000000089e-01

-4.650000000000000244e-01

-5.699999999999999512e-01

-6.225000000000000533e-01

-6.300000000000000044e-01

-5.625000000000000000e-01

-4.774999999999999800e-01

-4.199999999999999845e-01

-4.650000000000000244e-01

-4.724999999999999756e-01

-3.975000000000000200e-01

-3.125000000000000000e-01

-3.574999999999999845e-01

-4.124999999999999778e-01

-4.050000000000000266e-01

-4.099999999999999756e-01

-3.499999999999999778e-01

-3.049999999999999933e-01

-2.099999999999999922e-01

-1.049999999999999961e-01

-5.249999999999999806e-02

1.125000000000000028e-01

2.474999999999999978e-01

2.700000000000000178e-01

2.675000000000000155e-01

2.374999999999999889e-01

2.025000000000000133e-01

2.225000000000000033e-01

1.275000000000000022e-01

1.275000000000000022e-01

2.174999999999999989e-01

2.325000000000000122e-01

2.824999999999999734e-01

4.099999999999999756e-01

4.174999999999999822e-01

2.924999999999999822e-01

2.374999999999999889e-01

2.174999999999999989e-01

1.400000000000000133e-01

1.125000000000000028e-01

1.049999999999999961e-01

1.499999999999999944e-01

1.199999999999999956e-01

7.249999999999999500e-02

1.125000000000000028e-01

2.074999999999999900e-01

1.474999999999999922e-01

1.625000000000000056e-01

2.550000000000000044e-01

2.999999999999999889e-01

2.074999999999999900e-01

1.849999999999999978e-01

1.350000000000000089e-01

5.999999999999999778e-02

8.000000000000000167e-02

2.374999999999999889e-01

2.525000000000000022e-01

1.925000000000000044e-01

1.950000000000000067e-01

2.449999999999999956e-01

2.999999999999999889e-01

3.275000000000000133e-01

3.125000000000000000e-01

2.700000000000000178e-01

2.824999999999999734e-01

2.600000000000000089e-01

3.449999999999999734e-01

4.324999999999999956e-01

3.900000000000000133e-01

2.700000000000000178e-01

2.374999999999999889e-01

3.649999999999999911e-01

4.174999999999999822e-01

4.025000000000000244e-01

4.500000000000000111e-01

4.849999999999999867e-01

5.150000000000000133e-01

6.650000000000000355e-01

7.850000000000000311e-01

7.724999999999999645e-01

7.800000000000000266e-01

8.449999999999999734e-01

8.299999999999999600e-01

7.199999999999999734e-01

5.925000000000000266e-01

5.474999999999999867e-01

5.100000000000000089e-01

4.425000000000000044e-01

3.300000000000000155e-01

2.999999999999999889e-01

3.074999999999999956e-01

3.125000000000000000e-01

3.599999999999999867e-01

2.849999999999999756e-01

1.350000000000000089e-01

2.750000000000000014e-02

1.499999999999999944e-02

-4.250000000000000305e-02

-7.249999999999999500e-02

-1.100000000000000006e-01

-6.750000000000000444e-02

2.750000000000000014e-02

7.499999999999999722e-02

2.000000000000000042e-02

-1.499999999999999944e-01

-2.750000000000000222e-01

-3.225000000000000089e-01

-2.174999999999999989e-01

-1.350000000000000089e-01

-8.999999999999999667e-02

-8.000000000000000167e-02

5.000000000000000104e-03

3.749999999999999861e-02

-4.250000000000000305e-02

-1.100000000000000006e-01

-8.749999999999999445e-02

-1.250000000000000000e-01

-4.499999999999999833e-02

7.249999999999999500e-02

1.174999999999999933e-01

8.250000000000000389e-02

8.749999999999999445e-02

2.000000000000000111e-01

2.000000000000000111e-01

2.600000000000000089e-01

5.024999999999999467e-01

6.374999999999999556e-01

6.800000000000000488e-01

8.000000000000000444e-01

1.002499999999999947e+00

1.205000000000000071e+00

1.332500000000000018e+00

1.310000000000000053e+00

1.107499999999999929e+00

8.924999999999999600e-01

7.574999999999999512e-01

8.525000000000000355e-01

1.010000000000000009e+00

9.975000000000000533e-01

7.650000000000000133e-01

4.650000000000000244e-01

1.724999999999999867e-01

4.250000000000000305e-02

-2.999999999999999889e-02

-1.275000000000000022e-01

-3.074999999999999956e-01

-5.899999999999999689e-01

-7.724999999999999645e-01

-7.425000000000000488e-01

-6.674999999999999822e-01

-6.149999999999999911e-01

-5.250000000000000222e-01

-4.699999999999999734e-01

-4.475000000000000089e-01

-4.924999999999999933e-01

-5.324999999999999734e-01

-5.925000000000000266e-01

-6.149999999999999911e-01

-5.550000000000000488e-01

-4.625000000000000222e-01

-3.599999999999999867e-01

-3.674999999999999933e-01

-4.550000000000000155e-01

-5.000000000000000000e-01

-4.949999999999999956e-01

-4.349999999999999978e-01

-3.449999999999999734e-01

-3.125000000000000000e-01

-3.900000000000000133e-01

-5.300000000000000266e-01

-6.274999999999999467e-01

-6.899999999999999467e-01

-7.099999999999999645e-01

-7.475000000000000533e-01

-7.249999999999999778e-01

-6.424999999999999600e-01

-6.500000000000000222e-01

-6.300000000000000044e-01

-6.125000000000000444e-01

-6.274999999999999467e-01

-5.675000000000000044e-01

-5.024999999999999467e-01

-4.774999999999999800e-01

-4.349999999999999978e-01

-2.899999999999999800e-01

-1.774999999999999911e-01

-9.500000000000000111e-02

1.499999999999999944e-02

5.000000000000000104e-03

-4.499999999999999833e-02

5.000000000000000278e-02

6.750000000000000444e-02

7.249999999999999500e-02

4.499999999999999833e-02

4.499999999999999833e-02

3.749999999999999861e-02

-4.499999999999999833e-02

-5.000000000000000278e-02

-2.249999999999999917e-02

-4.250000000000000305e-02

1.499999999999999944e-02

2.000000000000000042e-02

-5.249999999999999806e-02

-5.249999999999999806e-02

8.749999999999999445e-02

1.849999999999999978e-01

1.474999999999999922e-01

3.749999999999999861e-02

-6.500000000000000222e-02

-5.750000000000000250e-02

-2.750000000000000014e-02

5.999999999999999778e-02

6.750000000000000444e-02

5.000000000000000278e-02

6.750000000000000444e-02

1.424999999999999878e-01

2.250000000000000056e-01

2.750000000000000222e-01

2.974999999999999867e-01

3.125000000000000000e-01

2.149999999999999967e-01

5.000000000000000104e-03

-2.924999999999999822e-01

-3.225000000000000089e-01

-2.750000000000000222e-01

-2.449999999999999956e-01

0.000000000000000000e+00

6.500000000000000222e-02

5.000000000000000278e-02

5.750000000000000250e-02

7.249999999999999500e-02

5.999999999999999778e-02

3.749999999999999861e-02

2.249999999999999917e-02

1.250000000000000069e-02

2.999999999999999889e-02

1.625000000000000056e-01

2.374999999999999889e-01

2.849999999999999756e-01

3.300000000000000155e-01

3.750000000000000000e-01

3.900000000000000133e-01

4.025000000000000244e-01

3.674999999999999933e-01

2.399999999999999911e-01

1.799999999999999933e-01

2.374999999999999889e-01

3.875000000000000111e-01

5.675000000000000044e-01

6.075000000000000400e-01

6.500000000000000222e-01

7.850000000000000311e-01

7.574999999999999512e-01

5.699999999999999512e-01

3.950000000000000178e-01

2.374999999999999889e-01

1.799999999999999933e-01

1.875000000000000000e-01

2.225000000000000033e-01

2.325000000000000122e-01

1.325000000000000067e-01

5.000000000000000278e-02

-4.250000000000000305e-02

-1.199999999999999956e-01

-1.350000000000000089e-01

-1.049999999999999961e-01

-1.049999999999999961e-01

-1.125000000000000028e-01

-1.350000000000000089e-01

-1.199999999999999956e-01

-1.275000000000000022e-01

-1.474999999999999922e-01

-1.849999999999999978e-01

-2.149999999999999967e-01

-1.849999999999999978e-01

-1.575000000000000011e-01

-1.724999999999999867e-01

-1.950000000000000067e-01

-2.099999999999999922e-01

-2.399999999999999911e-01

-2.974999999999999867e-01

-2.924999999999999822e-01

-2.600000000000000089e-01

-3.225000000000000089e-01

-3.300000000000000155e-01

-3.125000000000000000e-01

-2.849999999999999756e-01

-2.174999999999999989e-01

-1.174999999999999933e-01

-1.424999999999999878e-01

-2.174999999999999989e-01

-3.049999999999999933e-01

-1.575000000000000011e-01

1.250000000000000069e-02

2.325000000000000122e-01

5.224999999999999645e-01

7.325000000000000400e-01

8.475000000000000311e-01

8.599999999999999867e-01

8.824999999999999512e-01

8.774999999999999467e-01

9.375000000000000000e-01

9.975000000000000533e-01

9.675000000000000266e-01

8.675000000000000488e-01

7.550000000000000044e-01

7.650000000000000133e-01

9.575000000000000178e-01

1.064999999999999947e+00

8.924999999999999600e-01

4.799999999999999822e-01

7.249999999999999500e-02

-2.750000000000000222e-01

-4.724999999999999756e-01

-5.925000000000000266e-01

-6.724999999999999867e-01

-7.249999999999999778e-01

-7.125000000000000222e-01

-6.500000000000000222e-01

-6.374999999999999556e-01

-6.450000000000000178e-01

-6.500000000000000222e-01

-6.350000000000000089e-01

-5.300000000000000266e-01

-4.425000000000000044e-01

-4.274999999999999911e-01

-5.024999999999999467e-01

-6.424999999999999600e-01

-7.574999999999999512e-01

-8.249999999999999556e-01

-7.624999999999999556e-01

-6.724999999999999867e-01

-6.674999999999999822e-01

-7.550000000000000044e-01

-8.299999999999999600e-01

-8.024999999999999911e-01

-7.724999999999999645e-01

-7.175000000000000266e-01

-7.199999999999999734e-01

-7.399999999999999911e-01

-7.049999999999999600e-01

-7.399999999999999911e-01

-7.500000000000000000e-01

-7.249999999999999778e-01

-7.249999999999999778e-01

-7.175000000000000266e-01

-6.800000000000000488e-01

-6.674999999999999822e-01

-6.600000000000000311e-01

-6.524999999999999689e-01

-6.824999999999999956e-01

-7.425000000000000488e-01

-7.624999999999999556e-01

-7.275000000000000355e-01

-6.049999999999999822e-01

-4.174999999999999822e-01

-2.974999999999999867e-01

-2.300000000000000100e-01

-2.149999999999999967e-01

-2.250000000000000056e-01

-2.399999999999999911e-01

-2.525000000000000022e-01

-1.849999999999999978e-01

-1.100000000000000006e-01

-1.100000000000000006e-01

-1.275000000000000022e-01

-1.049999999999999961e-01

7.499999999999999722e-03

3.500000000000000333e-02

5.750000000000000250e-02

-2.999999999999999889e-02

-1.625000000000000056e-01

-1.925000000000000044e-01

-1.400000000000000133e-01

-1.400000000000000133e-01

-7.499999999999999722e-02

-3.500000000000000333e-02

-3.749999999999999861e-02

-5.000000000000000278e-02

-4.499999999999999833e-02

-1.250000000000000000e-01

-1.575000000000000011e-01

-1.575000000000000011e-01

-1.799999999999999933e-01

-1.774999999999999911e-01

-1.325000000000000067e-01

-2.999999999999999889e-02

-2.000000000000000042e-02

-2.249999999999999917e-02

-5.750000000000000250e-02

-1.250000000000000000e-01

-1.925000000000000044e-01

-1.875000000000000000e-01

-1.849999999999999978e-01

-1.700000000000000122e-01

-1.400000000000000133e-01

-1.024999999999999939e-01

-8.250000000000000389e-02

-8.999999999999999667e-02

-1.499999999999999944e-01

-1.424999999999999878e-01

-1.049999999999999961e-01

-9.500000000000000111e-02

-6.750000000000000444e-02

-8.749999999999999445e-02

-1.424999999999999878e-01

-1.575000000000000011e-01

-1.424999999999999878e-01

-4.499999999999999833e-02

5.999999999999999778e-02

1.024999999999999939e-01

1.125000000000000028e-01

1.250000000000000000e-01

1.125000000000000028e-01

8.000000000000000167e-02

1.100000000000000006e-01

1.650000000000000078e-01

2.775000000000000244e-01

3.750000000000000000e-01

4.425000000000000044e-01

4.924999999999999933e-01

5.074999999999999512e-01

4.699999999999999734e-01

3.900000000000000133e-01

2.999999999999999889e-01

2.474999999999999978e-01

2.225000000000000033e-01

1.724999999999999867e-01

1.400000000000000133e-01

1.049999999999999961e-01

8.749999999999999445e-02

8.999999999999999667e-02

4.499999999999999833e-02

-1.174999999999999933e-01

-2.700000000000000178e-01

-4.500000000000000111e-01

-6.049999999999999822e-01

-6.450000000000000178e-01

-5.975000000000000311e-01

-5.074999999999999512e-01

-4.025000000000000244e-01

-3.375000000000000222e-01

-3.674999999999999933e-01

-4.799999999999999822e-01

-5.400000000000000355e-01

-5.450000000000000400e-01

-5.300000000000000266e-01

-4.650000000000000244e-01

-4.124999999999999778e-01

-4.050000000000000266e-01

-4.924999999999999933e-01

-5.625000000000000000e-01

-5.400000000000000355e-01

-4.699999999999999734e-01

-4.249999999999999889e-01

-4.500000000000000111e-01

-4.575000000000000178e-01

-4.724999999999999756e-01

-4.425000000000000044e-01

-3.524999999999999800e-01

-3.649999999999999911e-01

-4.575000000000000178e-01

-4.774999999999999800e-01

-3.300000000000000155e-01

-1.499999999999999944e-01

7.249999999999999500e-02

2.924999999999999822e-01

4.500000000000000111e-01

5.825000000000000178e-01

7.125000000000000222e-01

8.824999999999999512e-01

1.054999999999999938e+00

1.132500000000000062e+00

1.080000000000000071e+00

1.002499999999999947e+00

9.649999999999999689e-01

1.064999999999999947e+00

1.447500000000000009e+00

1.715000000000000080e+00

1.542499999999999982e+00

1.034999999999999920e+00

4.400000000000000022e-01

-2.300000000000000100e-01

-7.199999999999999734e-01

-8.675000000000000488e-01

-9.224999999999999867e-01

-8.924999999999999600e-01

-8.699999999999999956e-01

-9.050000000000000266e-01

-9.350000000000000533e-01

-9.050000000000000266e-01

-8.074999999999999956e-01

-7.399999999999999911e-01

-7.349999999999999867e-01

-7.650000000000000133e-01

-9.050000000000000266e-01

-9.599999999999999645e-01

-9.274999999999999911e-01

-8.774999999999999467e-01

-8.249999999999999556e-01

-7.774999999999999689e-01

-7.500000000000000000e-01

-7.950000000000000400e-01

-8.900000000000000133e-01

-9.124999999999999778e-01

-9.499999999999999556e-01

-9.649999999999999689e-01

-9.224999999999999867e-01

-8.625000000000000444e-01

-8.325000000000000178e-01

-8.750000000000000000e-01

-8.675000000000000488e-01

-8.675000000000000488e-01

-8.625000000000000444e-01

-8.375000000000000222e-01

-7.874999999999999778e-01

-7.049999999999999600e-01

-6.350000000000000089e-01

-6.600000000000000311e-01

-8.074999999999999956e-01

-1.027500000000000080e+00

-1.100000000000000089e+00

-9.799999999999999822e-01

-8.699999999999999956e-01

-7.700000000000000178e-01

-6.824999999999999956e-01

-6.674999999999999822e-01

-6.149999999999999911e-01

-4.625000000000000222e-01

-3.750000000000000000e-01

-2.899999999999999800e-01

-1.350000000000000089e-01

1.499999999999999944e-02

4.499999999999999833e-02

8.749999999999999445e-02

8.749999999999999445e-02

5.999999999999999778e-02

6.750000000000000444e-02

1.174999999999999933e-01

7.249999999999999500e-02

9.750000000000000333e-02

1.700000000000000122e-01

1.774999999999999911e-01

1.875000000000000000e-01

1.625000000000000056e-01

8.250000000000000389e-02

8.000000000000000167e-02

5.999999999999999778e-02

1.250000000000000069e-02

-2.750000000000000014e-02

1.250000000000000069e-02

-2.999999999999999889e-02

-4.250000000000000305e-02

-2.750000000000000014e-02

-3.749999999999999861e-02

-5.750000000000000250e-02

0.000000000000000000e+00

4.499999999999999833e-02

0.000000000000000000e+00

4.250000000000000305e-02

6.750000000000000444e-02

7.499999999999999722e-02

1.499999999999999944e-02

-2.999999999999999889e-02

-3.749999999999999861e-02

6.500000000000000222e-02

1.950000000000000067e-01

2.325000000000000122e-01

1.875000000000000000e-01

1.774999999999999911e-01

1.499999999999999944e-01

1.100000000000000006e-01

8.749999999999999445e-02

1.100000000000000006e-01

1.724999999999999867e-01

2.300000000000000100e-01

2.700000000000000178e-01

2.474999999999999978e-01

1.925000000000000044e-01

1.650000000000000078e-01

2.074999999999999900e-01

2.550000000000000044e-01

3.125000000000000000e-01

3.674999999999999933e-01

3.900000000000000133e-01

3.900000000000000133e-01

4.650000000000000244e-01

5.400000000000000355e-01

6.650000000000000355e-01

7.175000000000000266e-01

6.724999999999999867e-01

6.824999999999999956e-01

7.475000000000000533e-01

7.724999999999999645e-01

7.175000000000000266e-01

7.049999999999999600e-01

7.574999999999999512e-01

6.075000000000000400e-01

4.625000000000000222e-01

2.924999999999999822e-01

2.099999999999999922e-01

1.875000000000000000e-01

1.799999999999999933e-01

8.999999999999999667e-02

-5.999999999999999778e-02

-1.199999999999999956e-01

-6.750000000000000444e-02

-5.750000000000000250e-02

-1.024999999999999939e-01

-1.275000000000000022e-01

-1.100000000000000006e-01

-8.749999999999999445e-02

-7.499999999999999722e-02

-4.499999999999999833e-02

6.500000000000000222e-02

8.999999999999999667e-02

0.000000000000000000e+00

-5.999999999999999778e-02

-3.749999999999999861e-02

-4.499999999999999833e-02

-4.499999999999999833e-02

3.500000000000000333e-02

9.500000000000000111e-02

9.750000000000000333e-02

8.999999999999999667e-02

3.500000000000000333e-02

-1.250000000000000000e-01

-2.149999999999999967e-01

-2.174999999999999989e-01

-1.774999999999999911e-01

-1.474999999999999922e-01

-8.749999999999999445e-02

2.000000000000000042e-02

1.474999999999999922e-01

2.449999999999999956e-01

4.550000000000000155e-01

7.399999999999999911e-01

9.375000000000000000e-01

9.875000000000000444e-01

1.004999999999999893e+00

1.129999999999999893e+00

1.332500000000000018e+00

1.500000000000000000e+00

1.537500000000000089e+00

1.362500000000000044e+00

1.257500000000000062e+00

1.324999999999999956e+00

1.557500000000000107e+00

1.770000000000000018e+00

1.612500000000000044e+00

1.110000000000000098e+00

6.350000000000000089e-01

3.150000000000000022e-01

-2.999999999999999889e-02

-2.225000000000000033e-01

-3.300000000000000155e-01

-4.724999999999999756e-01

-5.999999999999999778e-01

-5.625000000000000000e-01

-4.400000000000000022e-01

-3.825000000000000067e-01

-3.574999999999999845e-01

-3.200000000000000067e-01

-3.425000000000000266e-01

-3.574999999999999845e-01

-3.150000000000000022e-01

-3.375000000000000222e-01

-3.524999999999999800e-01

-3.975000000000000200e-01

-3.875000000000000111e-01

-3.649999999999999911e-01

-3.900000000000000133e-01

-4.324999999999999956e-01

-4.575000000000000178e-01

-4.124999999999999778e-01

-3.125000000000000000e-01

-2.750000000000000222e-01

-2.849999999999999756e-01

-2.849999999999999756e-01

-2.750000000000000222e-01

-4.550000000000000155e-01

-5.775000000000000133e-01

-5.250000000000000222e-01

-4.274999999999999911e-01

-3.225000000000000089e-01

-3.074999999999999956e-01

-3.574999999999999845e-01

-4.349999999999999978e-01

-5.150000000000000133e-01

-4.324999999999999956e-01

-3.649999999999999911e-01

-4.124999999999999778e-01

-4.099999999999999756e-01

-3.350000000000000200e-01

-3.350000000000000200e-01

-3.125000000000000000e-01

-1.499999999999999944e-01

1.250000000000000069e-02

8.999999999999999667e-02

8.749999999999999445e-02

1.650000000000000078e-01

2.924999999999999822e-01

3.150000000000000022e-01

2.974999999999999867e-01

3.425000000000000266e-01

3.674999999999999933e-01

3.125000000000000000e-01

3.425000000000000266e-01

3.574999999999999845e-01

3.599999999999999867e-01

3.499999999999999778e-01

2.824999999999999734e-01

2.099999999999999922e-01

1.275000000000000022e-01

5.999999999999999778e-02

1.474999999999999922e-01

2.300000000000000100e-01

3.275000000000000133e-01

3.750000000000000000e-01

3.724999999999999978e-01

3.649999999999999911e-01

2.525000000000000022e-01

1.774999999999999911e-01

2.000000000000000111e-01

2.074999999999999900e-01

2.550000000000000044e-01

2.924999999999999822e-01

2.675000000000000155e-01

2.924999999999999822e-01

3.449999999999999734e-01

3.524999999999999800e-01

3.125000000000000000e-01

2.924999999999999822e-01

2.675000000000000155e-01

2.775000000000000244e-01

2.074999999999999900e-01

1.799999999999999933e-01

1.700000000000000122e-01

1.724999999999999867e-01

2.824999999999999734e-01

2.999999999999999889e-01

2.999999999999999889e-01

2.374999999999999889e-01

1.625000000000000056e-01

1.400000000000000133e-01

1.199999999999999956e-01

7.249999999999999500e-02

2.099999999999999922e-01

3.599999999999999867e-01

3.900000000000000133e-01

3.825000000000000067e-01

3.574999999999999845e-01

3.750000000000000000e-01

4.425000000000000044e-01

5.000000000000000000e-01

5.699999999999999512e-01

5.975000000000000311e-01

6.875000000000000000e-01

7.950000000000000400e-01

8.625000000000000444e-01

9.575000000000000178e-01

1.004999999999999893e+00

8.924999999999999600e-01

6.750000000000000444e-01

4.124999999999999778e-01

2.399999999999999911e-01

1.950000000000000067e-01

2.849999999999999756e-01

2.999999999999999889e-01

2.399999999999999911e-01

1.549999999999999989e-01

2.750000000000000014e-02

-4.250000000000000305e-02

-2.750000000000000014e-02

-3.500000000000000333e-02

-5.249999999999999806e-02

-7.499999999999999722e-02

-8.999999999999999667e-02

-7.499999999999999722e-02

-5.999999999999999778e-02

-1.125000000000000028e-01

-1.424999999999999878e-01

-1.325000000000000067e-01

-5.249999999999999806e-02

2.000000000000000042e-02

4.499999999999999833e-02

-4.499999999999999833e-02

-1.575000000000000011e-01

-1.799999999999999933e-01

-1.199999999999999956e-01

-8.999999999999999667e-02

-1.024999999999999939e-01

-2.000000000000000111e-01

-2.974999999999999867e-01

-3.649999999999999911e-01

-3.200000000000000067e-01

-2.999999999999999889e-01

-2.700000000000000178e-01

-2.399999999999999911e-01

-2.250000000000000056e-01

-2.174999999999999989e-01

-5.999999999999999778e-02

1.474999999999999922e-01

2.849999999999999756e-01

5.024999999999999467e-01

6.975000000000000089e-01

8.549999999999999822e-01

9.649999999999999689e-01

1.034999999999999920e+00

1.185000000000000053e+00

1.294999999999999929e+00

1.362500000000000044e+00

1.332500000000000018e+00

1.159999999999999920e+00

9.525000000000000133e-01

9.224999999999999867e-01

1.117499999999999938e+00

1.364999999999999991e+00

1.362500000000000044e+00

1.020000000000000018e+00

5.324999999999999734e-01

9.500000000000000111e-02

-2.149999999999999967e-01

-3.300000000000000155e-01

-3.900000000000000133e-01

-4.874999999999999889e-01

-5.675000000000000044e-01

-5.324999999999999734e-01

-4.324999999999999956e-01

-4.575000000000000178e-01

-5.224999999999999645e-01

-5.849999999999999645e-01

-5.899999999999999689e-01

-5.324999999999999734e-01

-4.799999999999999822e-01

-5.000000000000000000e-01

-5.550000000000000488e-01

-5.999999999999999778e-01

-5.224999999999999645e-01

-4.274999999999999911e-01

-5.024999999999999467e-01

-5.999999999999999778e-01

-6.075000000000000400e-01

-5.775000000000000133e-01

-4.650000000000000244e-01

-4.274999999999999911e-01

-4.799999999999999822e-01

-5.374999999999999778e-01

-5.474999999999999867e-01

-4.949999999999999956e-01

-5.074999999999999512e-01

-5.324999999999999734e-01

-5.675000000000000044e-01

-4.799999999999999822e-01

-4.500000000000000111e-01

-4.799999999999999822e-01

-5.749999999999999556e-01

-6.049999999999999822e-01

-5.849999999999999645e-01

-5.925000000000000266e-01

-5.899999999999999689e-01

-5.224999999999999645e-01

-5.074999999999999512e-01

-4.774999999999999800e-01

-3.975000000000000200e-01

-3.300000000000000155e-01

-3.375000000000000222e-01

-2.300000000000000100e-01

-6.500000000000000222e-02

3.500000000000000333e-02

1.125000000000000028e-01

2.250000000000000056e-01

2.625000000000000111e-01

2.074999999999999900e-01

2.250000000000000056e-01

2.325000000000000122e-01

1.625000000000000056e-01

1.700000000000000122e-01

2.374999999999999889e-01

2.449999999999999956e-01

2.074999999999999900e-01

2.325000000000000122e-01

2.099999999999999922e-01

1.950000000000000067e-01

2.300000000000000100e-01

2.449999999999999956e-01

1.350000000000000089e-01

8.000000000000000167e-02

1.100000000000000006e-01

1.625000000000000056e-01

2.399999999999999911e-01

2.824999999999999734e-01

3.074999999999999956e-01

2.250000000000000056e-01

7.499999999999999722e-02

-2.000000000000000042e-02

-5.249999999999999806e-02

-2.000000000000000042e-02

1.474999999999999922e-01

2.750000000000000222e-01

2.675000000000000155e-01

1.799999999999999933e-01

1.250000000000000000e-01

1.325000000000000067e-01

1.400000000000000133e-01

1.424999999999999878e-01

1.625000000000000056e-01

1.350000000000000089e-01

2.750000000000000014e-02

2.249999999999999917e-02

5.999999999999999778e-02

5.750000000000000250e-02

8.999999999999999667e-02

2.374999999999999889e-01

3.049999999999999933e-01

3.225000000000000089e-01

3.524999999999999800e-01

4.324999999999999956e-01

4.349999999999999978e-01

3.499999999999999778e-01

3.225000000000000089e-01

3.275000000000000133e-01

3.275000000000000133e-01

3.524999999999999800e-01

4.324999999999999956e-01

4.500000000000000111e-01

4.249999999999999889e-01

5.250000000000000222e-01

6.125000000000000444e-01

6.674999999999999822e-01

7.500000000000000000e-01

8.074999999999999956e-01

8.675000000000000488e-01

7.924999999999999822e-01

7.125000000000000222e-01

5.775000000000000133e-01

4.774999999999999800e-01

2.899999999999999800e-01

1.625000000000000056e-01

1.925000000000000044e-01

2.325000000000000122e-01

2.625000000000000111e-01

2.600000000000000089e-01

2.025000000000000133e-01

1.325000000000000067e-01

4.250000000000000305e-02

4.499999999999999833e-02

4.250000000000000305e-02

-5.750000000000000250e-02

-8.749999999999999445e-02

-4.250000000000000305e-02

-3.749999999999999861e-02

-7.249999999999999500e-02

-7.249999999999999500e-02

-1.174999999999999933e-01

-1.100000000000000006e-01

-1.174999999999999933e-01

-1.325000000000000067e-01

-1.250000000000000000e-01

-1.100000000000000006e-01

-1.350000000000000089e-01

-1.199999999999999956e-01

-9.750000000000000333e-02

-7.499999999999999722e-02

-5.000000000000000278e-02

2.750000000000000014e-02

-6.750000000000000444e-02

-9.750000000000000333e-02

-1.575000000000000011e-01

-1.625000000000000056e-01

-8.749999999999999445e-02

5.000000000000000104e-03

5.249999999999999806e-02

1.575000000000000011e-01

2.625000000000000111e-01

4.724999999999999756e-01

6.650000000000000355e-01

7.399999999999999911e-01

7.624999999999999556e-01

9.074999999999999734e-01

1.042499999999999982e+00

1.237500000000000044e+00

1.485000000000000098e+00

1.530000000000000027e+00

1.350000000000000089e+00

1.185000000000000053e+00

1.110000000000000098e+00

1.080000000000000071e+00

1.212499999999999911e+00

1.267500000000000071e+00

9.875000000000000444e-01

5.625000000000000000e-01

2.025000000000000133e-01

1.250000000000000069e-02

-1.174999999999999933e-01

-2.600000000000000089e-01

-3.350000000000000200e-01

-4.099999999999999756e-01

-4.650000000000000244e-01

-4.799999999999999822e-01

-4.699999999999999734e-01

-5.024999999999999467e-01

-4.500000000000000111e-01

-2.750000000000000222e-01

-2.174999999999999989e-01

-2.700000000000000178e-01

-3.300000000000000155e-01

-4.174999999999999822e-01

-5.400000000000000355e-01

-5.925000000000000266e-01

-5.899999999999999689e-01

-5.625000000000000000e-01

-5.524999999999999911e-01

-5.550000000000000488e-01

-5.749999999999999556e-01

-5.749999999999999556e-01

-5.999999999999999778e-01

-5.749999999999999556e-01

-5.400000000000000355e-01

-5.324999999999999734e-01

-5.699999999999999512e-01

-5.400000000000000355e-01

-4.274999999999999911e-01

-4.699999999999999734e-01

-4.575000000000000178e-01

-5.224999999999999645e-01

-6.075000000000000400e-01

-6.650000000000000355e-01

-6.350000000000000089e-01

-5.550000000000000488e-01

-4.425000000000000044e-01

-4.500000000000000111e-01

-4.500000000000000111e-01

-3.975000000000000200e-01

-3.875000000000000111e-01

-3.900000000000000133e-01

-2.824999999999999734e-01

-2.250000000000000056e-01

-1.875000000000000000e-01

-1.275000000000000022e-01

-2.750000000000000014e-02

5.249999999999999806e-02

8.000000000000000167e-02

1.125000000000000028e-01

1.350000000000000089e-01

1.499999999999999944e-01

1.849999999999999978e-01

2.000000000000000111e-01

2.325000000000000122e-01

2.700000000000000178e-01

3.225000000000000089e-01

3.425000000000000266e-01

3.200000000000000067e-01

2.550000000000000044e-01

1.024999999999999939e-01

0.000000000000000000e+00

1.250000000000000069e-02

5.000000000000000104e-03

2.249999999999999917e-02

6.500000000000000222e-02

5.750000000000000250e-02

-2.999999999999999889e-02

2.750000000000000014e-02

8.999999999999999667e-02

7.249999999999999500e-02

7.249999999999999500e-02

1.325000000000000067e-01

1.125000000000000028e-01

8.749999999999999445e-02

8.749999999999999445e-02

8.000000000000000167e-02

5.249999999999999806e-02

9.500000000000000111e-02

1.275000000000000022e-01

1.575000000000000011e-01

2.399999999999999911e-01

2.074999999999999900e-01

8.999999999999999667e-02

2.000000000000000042e-02

1.499999999999999944e-02

4.499999999999999833e-02

1.700000000000000122e-01

1.424999999999999878e-01

8.999999999999999667e-02

1.100000000000000006e-01

7.249999999999999500e-02

-2.750000000000000014e-02

-5.750000000000000250e-02

-2.750000000000000014e-02

5.999999999999999778e-02

2.250000000000000056e-01

3.574999999999999845e-01

4.124999999999999778e-01

4.124999999999999778e-01

4.050000000000000266e-01

4.025000000000000244e-01

3.900000000000000133e-01

4.475000000000000089e-01

5.849999999999999645e-01

6.800000000000000488e-01

6.724999999999999867e-01

6.800000000000000488e-01

7.275000000000000355e-01

7.425000000000000488e-01

6.949999999999999512e-01

6.975000000000000089e-01

6.450000000000000178e-01

4.924999999999999933e-01

3.674999999999999933e-01

2.525000000000000022e-01

1.700000000000000122e-01

1.724999999999999867e-01

1.950000000000000067e-01

1.799999999999999933e-01

1.049999999999999961e-01

4.250000000000000305e-02

-8.250000000000000389e-02

-1.499999999999999944e-01

-1.799999999999999933e-01

-1.774999999999999911e-01

-1.199999999999999956e-01

-6.750000000000000444e-02

-7.249999999999999500e-02

-8.999999999999999667e-02

-4.250000000000000305e-02

-5.249999999999999806e-02

-1.325000000000000067e-01

-1.400000000000000133e-01

-5.750000000000000250e-02

4.250000000000000305e-02

9.750000000000000333e-02

5.750000000000000250e-02

-1.125000000000000028e-01

-2.250000000000000056e-01

-2.449999999999999956e-01

-2.824999999999999734e-01

-2.924999999999999822e-01

-2.700000000000000178e-01

-2.374999999999999889e-01

-1.499999999999999944e-01

-1.499999999999999944e-01

-2.000000000000000111e-01

-2.399999999999999911e-01

-1.925000000000000044e-01

0.000000000000000000e+00

2.074999999999999900e-01

4.174999999999999822e-01

6.500000000000000222e-01

8.299999999999999600e-01

9.050000000000000266e-01

1.017500000000000071e+00

1.189999999999999947e+00

1.312500000000000000e+00

1.447500000000000009e+00

1.477500000000000036e+00

1.302499999999999991e+00

1.137499999999999956e+00

1.152500000000000080e+00

1.317499999999999893e+00

1.567499999999999893e+00

1.497500000000000053e+00

1.094999999999999973e+00

5.474999999999999867e-01

5.999999999999999778e-02

-2.099999999999999922e-01

-3.875000000000000111e-01

-5.600000000000000533e-01

-5.775000000000000133e-01

-5.324999999999999734e-01

-5.224999999999999645e-01

-5.250000000000000222e-01

-5.775000000000000133e-01

-6.524999999999999689e-01

-6.750000000000000444e-01

-6.600000000000000311e-01

-6.724999999999999867e-01

-7.249999999999999778e-01

-6.975000000000000089e-01

-6.075000000000000400e-01

-5.625000000000000000e-01

-5.625000000000000000e-01

-6.075000000000000400e-01

-5.849999999999999645e-01

-5.324999999999999734e-01

-5.324999999999999734e-01

-5.675000000000000044e-01

-5.550000000000000488e-01

-5.250000000000000222e-01

-5.024999999999999467e-01

-4.949999999999999956e-01

-5.150000000000000133e-01

-5.550000000000000488e-01

-5.999999999999999778e-01

-6.075000000000000400e-01

-6.899999999999999467e-01

-8.399999999999999689e-01

-9.124999999999999778e-01

-8.750000000000000000e-01

-8.249999999999999556e-01

-7.650000000000000133e-01

-7.399999999999999911e-01

-7.399999999999999911e-01

-6.500000000000000222e-01

-5.675000000000000044e-01

-5.524999999999999911e-01

-4.699999999999999734e-01

-3.900000000000000133e-01

-3.724999999999999978e-01

-3.074999999999999956e-01

-1.950000000000000067e-01

-9.750000000000000333e-02

1.250000000000000069e-02

7.499999999999999722e-02

5.750000000000000250e-02

5.249999999999999806e-02

1.199999999999999956e-01

1.849999999999999978e-01

2.149999999999999967e-01

2.000000000000000111e-01

1.950000000000000067e-01

1.774999999999999911e-01

1.350000000000000089e-01

7.249999999999999500e-02

5.249999999999999806e-02

9.750000000000000333e-02

1.575000000000000011e-01

2.000000000000000111e-01

1.625000000000000056e-01

1.325000000000000067e-01

1.174999999999999933e-01

1.125000000000000028e-01

1.049999999999999961e-01

8.749999999999999445e-02

8.749999999999999445e-02

8.999999999999999667e-02

1.100000000000000006e-01

1.424999999999999878e-01

1.875000000000000000e-01

2.525000000000000022e-01

2.225000000000000033e-01

1.049999999999999961e-01

1.174999999999999933e-01

1.424999999999999878e-01

1.575000000000000011e-01

7.249999999999999500e-02

-3.749999999999999861e-02

-8.749999999999999445e-02

-5.999999999999999778e-02

7.499999999999999722e-03

-2.000000000000000042e-02

-1.199999999999999956e-01

-1.474999999999999922e-01

-8.250000000000000389e-02

5.000000000000000278e-02

8.250000000000000389e-02

6.500000000000000222e-02

5.249999999999999806e-02

1.024999999999999939e-01

1.724999999999999867e-01

2.325000000000000122e-01

2.525000000000000022e-01

2.999999999999999889e-01

3.674999999999999933e-01

4.575000000000000178e-01

5.675000000000000044e-01

6.225000000000000533e-01

6.600000000000000311e-01

6.125000000000000444e-01

5.825000000000000178e-01

5.675000000000000044e-01

5.300000000000000266e-01

5.324999999999999734e-01

6.125000000000000444e-01

6.899999999999999467e-01

7.099999999999999645e-01

6.225000000000000533e-01

5.300000000000000266e-01

3.750000000000000000e-01

2.074999999999999900e-01

1.700000000000000122e-01

1.625000000000000056e-01

1.950000000000000067e-01

2.174999999999999989e-01

1.774999999999999911e-01

9.750000000000000333e-02

-3.500000000000000333e-02

-1.024999999999999939e-01

-5.999999999999999778e-02

3.500000000000000333e-02

7.499999999999999722e-03

-7.499999999999999722e-02

-3.500000000000000333e-02

3.500000000000000333e-02

1.275000000000000022e-01

2.300000000000000100e-01

2.000000000000000111e-01

4.499999999999999833e-02

-3.500000000000000333e-02

-8.749999999999999445e-02

-1.474999999999999922e-01

-2.074999999999999900e-01

-2.099999999999999922e-01

-2.474999999999999978e-01

-2.325000000000000122e-01

-1.650000000000000078e-01

-1.625000000000000056e-01

-1.724999999999999867e-01

-1.474999999999999922e-01

-6.750000000000000444e-02

2.999999999999999889e-02

4.250000000000000305e-02

2.999999999999999889e-02

-6.500000000000000222e-02

-1.125000000000000028e-01

-2.000000000000000042e-02

2.300000000000000100e-01

4.425000000000000044e-01

6.750000000000000444e-01

9.000000000000000222e-01

1.004999999999999893e+00

1.139999999999999902e+00

1.242499999999999938e+00

1.317499999999999893e+00

1.452499999999999902e+00

1.477500000000000036e+00

1.402500000000000080e+00

1.287500000000000089e+00

1.252499999999999947e+00

1.409999999999999920e+00

1.620000000000000107e+00

1.647499999999999964e+00

1.264999999999999902e+00

7.550000000000000044e-01

2.700000000000000178e-01

0.000000000000000000e+00

-1.724999999999999867e-01

-3.200000000000000067e-01

-4.924999999999999933e-01

-5.899999999999999689e-01

-5.474999999999999867e-01

-4.699999999999999734e-01

-5.174999999999999600e-01

-5.600000000000000533e-01

-5.849999999999999645e-01

-5.925000000000000266e-01

-5.899999999999999689e-01

-5.849999999999999645e-01

-6.300000000000000044e-01

-6.149999999999999911e-01

-5.550000000000000488e-01

-5.400000000000000355e-01

-4.949999999999999956e-01

-4.274999999999999911e-01

-3.200000000000000067e-01

-3.125000000000000000e-01

-3.350000000000000200e-01

-4.050000000000000266e-01

-5.699999999999999512e-01

-7.275000000000000355e-01

-7.700000000000000178e-01

-7.650000000000000133e-01

-6.975000000000000089e-01

-6.574999999999999734e-01

-5.975000000000000311e-01

-5.925000000000000266e-01

-6.049999999999999822e-01

-6.350000000000000089e-01

-7.049999999999999600e-01

-8.175000000000000044e-01

-8.325000000000000178e-01

-7.475000000000000533e-01

-6.300000000000000044e-01

-6.350000000000000089e-01

-6.374999999999999556e-01

-5.749999999999999556e-01

-4.650000000000000244e-01

-4.274999999999999911e-01

-3.875000000000000111e-01

-3.375000000000000222e-01

-3.049999999999999933e-01

-2.174999999999999989e-01

-9.500000000000000111e-02

-8.250000000000000389e-02

-1.174999999999999933e-01

-8.000000000000000167e-02

-3.500000000000000333e-02

3.500000000000000333e-02

2.750000000000000014e-02

5.249999999999999806e-02

1.125000000000000028e-01

2.074999999999999900e-01

2.149999999999999967e-01

9.750000000000000333e-02

-3.749999999999999861e-02

4.499999999999999833e-02

2.099999999999999922e-01

3.375000000000000222e-01

4.174999999999999822e-01

3.150000000000000022e-01

6.750000000000000444e-02

-1.024999999999999939e-01

-1.499999999999999944e-01

-1.700000000000000122e-01

-1.199999999999999956e-01

3.500000000000000333e-02

1.625000000000000056e-01

1.950000000000000067e-01

2.250000000000000056e-01

1.950000000000000067e-01

1.575000000000000011e-01

1.275000000000000022e-01

-2.249999999999999917e-02

-1.499999999999999944e-01

-1.100000000000000006e-01

-6.500000000000000222e-02

-4.250000000000000305e-02

2.750000000000000014e-02

6.500000000000000222e-02

4.250000000000000305e-02

6.750000000000000444e-02

1.100000000000000006e-01

1.275000000000000022e-01

1.474999999999999922e-01

2.149999999999999967e-01

3.074999999999999956e-01

3.350000000000000200e-01

2.924999999999999822e-01

2.250000000000000056e-01

8.000000000000000167e-02

-2.000000000000000042e-02

8.000000000000000167e-02

1.424999999999999878e-01

2.000000000000000111e-01

2.625000000000000111e-01

3.674999999999999933e-01

3.724999999999999978e-01

3.524999999999999800e-01

5.250000000000000222e-01

6.350000000000000089e-01

7.199999999999999734e-01

7.425000000000000488e-01

6.949999999999999512e-01

6.949999999999999512e-01

6.450000000000000178e-01

5.474999999999999867e-01

4.650000000000000244e-01

2.999999999999999889e-01

2.700000000000000178e-01

2.974999999999999867e-01

3.975000000000000200e-01

5.074999999999999512e-01

3.950000000000000178e-01

2.000000000000000111e-01

7.249999999999999500e-02

-5.249999999999999806e-02

-1.275000000000000022e-01

-4.250000000000000305e-02

8.999999999999999667e-02

-2.000000000000000042e-02

-1.049999999999999961e-01

-1.575000000000000011e-01

-2.174999999999999989e-01

-2.525000000000000022e-01

-3.449999999999999734e-01

-2.999999999999999889e-01

-2.474999999999999978e-01

-2.700000000000000178e-01

-2.750000000000000222e-01

-1.849999999999999978e-01

-1.275000000000000022e-01

-3.749999999999999861e-02

5.750000000000000250e-02

8.250000000000000389e-02

1.400000000000000133e-01

1.049999999999999961e-01

0.000000000000000000e+00

-1.325000000000000067e-01

-2.300000000000000100e-01

-2.600000000000000089e-01

-1.650000000000000078e-01

-1.575000000000000011e-01

-1.849999999999999978e-01

-1.125000000000000028e-01

1.024999999999999939e-01

2.474999999999999978e-01

3.524999999999999800e-01

5.024999999999999467e-01

7.624999999999999556e-01

9.975000000000000533e-01

1.132500000000000062e+00

1.282499999999999973e+00

1.245000000000000107e+00

1.102500000000000036e+00

1.027500000000000080e+00

9.575000000000000178e-01

9.725000000000000311e-01

1.192499999999999893e+00

1.439999999999999947e+00

1.489999999999999991e+00

1.227500000000000036e+00

5.675000000000000044e-01

-3.500000000000000333e-02

-2.974999999999999867e-01

-4.099999999999999756e-01

-5.024999999999999467e-01

-5.675000000000000044e-01

-5.675000000000000044e-01

-4.874999999999999889e-01

-4.124999999999999778e-01

-3.800000000000000044e-01

-3.975000000000000200e-01

-3.750000000000000000e-01

-2.250000000000000056e-01

-1.400000000000000133e-01

-1.875000000000000000e-01

-2.325000000000000122e-01

-3.425000000000000266e-01

-5.250000000000000222e-01

-7.199999999999999734e-01

-8.549999999999999822e-01

-8.774999999999999467e-01

-7.399999999999999911e-01

-6.049999999999999822e-01

-5.374999999999999778e-01

-4.699999999999999734e-01

-3.275000000000000133e-01

-1.575000000000000011e-01

-2.000000000000000111e-01

-3.049999999999999933e-01

-3.425000000000000266e-01

-3.674999999999999933e-01

-6.600000000000000311e-01

-8.675000000000000488e-01

-8.549999999999999822e-01

-6.724999999999999867e-01

-4.099999999999999756e-01

-3.125000000000000000e-01

-4.924999999999999933e-01

-7.650000000000000133e-01

-8.750000000000000000e-01

-7.950000000000000400e-01

-7.399999999999999911e-01

-7.249999999999999778e-01

-6.875000000000000000e-01

-6.300000000000000044e-01

-5.224999999999999645e-01

-3.499999999999999778e-01

-1.950000000000000067e-01

-1.174999999999999933e-01

-5.999999999999999778e-02

5.000000000000000278e-02

1.174999999999999933e-01

1.275000000000000022e-01

1.774999999999999911e-01

1.925000000000000044e-01

1.499999999999999944e-01

1.125000000000000028e-01

1.049999999999999961e-01

8.000000000000000167e-02

1.650000000000000078e-01

2.474999999999999978e-01

2.250000000000000056e-01

1.125000000000000028e-01

1.549999999999999989e-01

2.374999999999999889e-01

2.824999999999999734e-01

2.374999999999999889e-01

1.049999999999999961e-01

-4.499999999999999833e-02

0.000000000000000000e+00

-5.249999999999999806e-02

-1.875000000000000000e-01

-2.250000000000000056e-01

-1.499999999999999944e-01

-1.024999999999999939e-01

-9.750000000000000333e-02

-1.174999999999999933e-01

-1.849999999999999978e-01

-1.774999999999999911e-01

-7.499999999999999722e-02

2.000000000000000042e-02

4.499999999999999833e-02

1.125000000000000028e-01

1.700000000000000122e-01

2.174999999999999989e-01

2.374999999999999889e-01

3.275000000000000133e-01

3.875000000000000111e-01

4.324999999999999956e-01

2.600000000000000089e-01

-5.000000000000000278e-02

-2.999999999999999889e-01

-2.625000000000000111e-01

-1.024999999999999939e-01

-2.750000000000000014e-02

0.000000000000000000e+00

2.249999999999999917e-02

9.500000000000000111e-02

2.174999999999999989e-01

3.649999999999999911e-01

3.825000000000000067e-01

3.300000000000000155e-01

2.924999999999999822e-01

3.350000000000000200e-01

3.825000000000000067e-01

3.524999999999999800e-01

3.300000000000000155e-01

4.025000000000000244e-01

5.474999999999999867e-01

6.274999999999999467e-01

5.749999999999999556e-01

6.225000000000000533e-01

6.075000000000000400e-01

5.000000000000000000e-01

4.174999999999999822e-01

2.974999999999999867e-01

2.550000000000000044e-01

2.849999999999999756e-01

3.499999999999999778e-01

4.050000000000000266e-01

3.825000000000000067e-01

3.574999999999999845e-01

3.425000000000000266e-01

3.074999999999999956e-01

2.399999999999999911e-01

6.750000000000000444e-02

-1.100000000000000006e-01

-1.549999999999999989e-01

-2.525000000000000022e-01

-2.824999999999999734e-01

-2.399999999999999911e-01

-1.950000000000000067e-01

-2.149999999999999967e-01

-2.550000000000000044e-01

-1.849999999999999978e-01

-1.325000000000000067e-01

-1.350000000000000089e-01

-1.799999999999999933e-01

-1.549999999999999989e-01

-1.700000000000000122e-01

-1.625000000000000056e-01

-1.174999999999999933e-01

-5.000000000000000278e-02

-7.499999999999999722e-02

-1.424999999999999878e-01

-1.125000000000000028e-01

-7.249999999999999500e-02

-9.750000000000000333e-02

-6.750000000000000444e-02

2.249999999999999917e-02

-9.750000000000000333e-02

-1.724999999999999867e-01

-1.724999999999999867e-01

-8.749999999999999445e-02

5.249999999999999806e-02

2.300000000000000100e-01

3.375000000000000222e-01

5.524999999999999911e-01

8.375000000000000222e-01

1.129999999999999893e+00

1.350000000000000089e+00

1.334999999999999964e+00

1.242499999999999938e+00

1.287500000000000089e+00

1.272499999999999964e+00

1.182500000000000107e+00

1.139999999999999902e+00

1.207500000000000018e+00

1.459999999999999964e+00

1.655000000000000027e+00

1.459999999999999964e+00

1.004999999999999893e+00

5.600000000000000533e-01

2.025000000000000133e-01

-2.249999999999999917e-02

-1.625000000000000056e-01

-2.399999999999999911e-01

-3.425000000000000266e-01

-4.324999999999999956e-01

-4.874999999999999889e-01

-6.125000000000000444e-01

-7.125000000000000222e-01

-7.500000000000000000e-01

-6.424999999999999600e-01

-4.475000000000000089e-01

-3.449999999999999734e-01

-2.775000000000000244e-01

-3.499999999999999778e-01

-6.300000000000000044e-01

-8.249999999999999556e-01

-8.024999999999999911e-01

-7.049999999999999600e-01

-5.625000000000000000e-01

-4.799999999999999822e-01

-5.074999999999999512e-01

-5.749999999999999556e-01

-6.199999999999999956e-01

-6.450000000000000178e-01

-5.925000000000000266e-01

-5.174999999999999600e-01

-4.625000000000000222e-01

-3.975000000000000200e-01

-4.099999999999999756e-01

-4.799999999999999822e-01

-4.349999999999999978e-01

-3.200000000000000067e-01

-3.574999999999999845e-01

-5.174999999999999600e-01

-5.999999999999999778e-01

-6.149999999999999911e-01

-6.225000000000000533e-01

-6.075000000000000400e-01

-5.925000000000000266e-01

-6.674999999999999822e-01

-6.750000000000000444e-01

-4.874999999999999889e-01

-2.374999999999999889e-01

-1.799999999999999933e-01

-2.849999999999999756e-01

-3.950000000000000178e-01

-4.174999999999999822e-01

-3.499999999999999778e-01

-1.199999999999999956e-01

8.999999999999999667e-02

1.950000000000000067e-01

2.474999999999999978e-01

2.999999999999999889e-01

2.625000000000000111e-01

1.724999999999999867e-01

1.125000000000000028e-01

1.275000000000000022e-01

2.250000000000000056e-01

3.074999999999999956e-01

3.150000000000000022e-01

3.524999999999999800e-01

3.649999999999999911e-01

3.724999999999999978e-01

3.825000000000000067e-01

2.250000000000000056e-01

-9.750000000000000333e-02

-1.199999999999999956e-01

0.000000000000000000e+00

6.500000000000000222e-02

8.999999999999999667e-02

1.125000000000000028e-01

8.999999999999999667e-02

1.100000000000000006e-01

2.099999999999999922e-01

3.449999999999999734e-01

3.524999999999999800e-01

2.374999999999999889e-01

1.849999999999999978e-01

1.424999999999999878e-01

1.325000000000000067e-01

1.575000000000000011e-01

1.724999999999999867e-01

3.749999999999999861e-02

-2.999999999999999889e-02

2.249999999999999917e-02

9.500000000000000111e-02

6.500000000000000222e-02

-8.999999999999999667e-02

-2.250000000000000056e-01

-2.300000000000000100e-01

-1.174999999999999933e-01

0.000000000000000000e+00

4.250000000000000305e-02

1.125000000000000028e-01

2.074999999999999900e-01

3.200000000000000067e-01

3.825000000000000067e-01

3.425000000000000266e-01

3.200000000000000067e-01

3.674999999999999933e-01

4.199999999999999845e-01

5.324999999999999734e-01

6.500000000000000222e-01

6.750000000000000444e-01

5.975000000000000311e-01

4.650000000000000244e-01

4.650000000000000244e-01

5.250000000000000222e-01

5.675000000000000044e-01

5.899999999999999689e-01

5.975000000000000311e-01

5.474999999999999867e-01

4.924999999999999933e-01

4.425000000000000044e-01

3.499999999999999778e-01

2.550000000000000044e-01

3.049999999999999933e-01

3.750000000000000000e-01

4.099999999999999756e-01

4.025000000000000244e-01

3.499999999999999778e-01

2.525000000000000022e-01

5.999999999999999778e-02

-1.199999999999999956e-01

-1.549999999999999989e-01

-8.250000000000000389e-02

2.000000000000000042e-02

-5.750000000000000250e-02

-2.750000000000000222e-01

-5.625000000000000000e-01

-6.300000000000000044e-01

-5.250000000000000222e-01

-4.625000000000000222e-01

-4.199999999999999845e-01

-4.050000000000000266e-01

-3.750000000000000000e-01

-2.625000000000000111e-01

-1.424999999999999878e-01

-1.024999999999999939e-01

-2.750000000000000014e-02

1.199999999999999956e-01

2.974999999999999867e-01

5.100000000000000089e-01

4.924999999999999933e-01

1.325000000000000067e-01

-2.625000000000000111e-01

-4.874999999999999889e-01

-5.450000000000000400e-01

-4.349999999999999978e-01

-3.275000000000000133e-01

-1.799999999999999933e-01

0.000000000000000000e+00

1.799999999999999933e-01

3.499999999999999778e-01

4.475000000000000089e-01

4.400000000000000022e-01

5.224999999999999645e-01

7.950000000000000400e-01

1.199999999999999956e+00

1.485000000000000098e+00

1.557500000000000107e+00

1.425000000000000044e+00

1.219999999999999973e+00

1.252499999999999947e+00

1.699999999999999956e+00

2.302500000000000213e+00

2.662500000000000089e+00

2.399999999999999911e+00

1.617499999999999938e+00

6.574999999999999734e-01

-1.250000000000000000e-01

-5.550000000000000488e-01

-8.100000000000000533e-01

-9.599999999999999645e-01

-1.139999999999999902e+00

-1.294999999999999929e+00

-1.199999999999999956e+00

-1.024999999999999911e+00

-8.699999999999999956e-01

-7.574999999999999512e-01

-7.624999999999999556e-01

-8.149999999999999467e-01

-8.750000000000000000e-01

-8.399999999999999689e-01

-8.000000000000000444e-01

-7.550000000000000044e-01

-6.899999999999999467e-01

-6.075000000000000400e-01

-5.224999999999999645e-01

-3.825000000000000067e-01

-1.950000000000000067e-01

-8.250000000000000389e-02

-1.250000000000000000e-01

-2.550000000000000044e-01

-4.199999999999999845e-01

-6.350000000000000089e-01

-7.774999999999999689e-01

-9.599999999999999645e-01

-1.192499999999999893e+00

-1.350000000000000089e+00

-1.334999999999999964e+00

-1.125000000000000000e+00

-8.549999999999999822e-01

-7.025000000000000133e-01

-7.049999999999999600e-01

-7.800000000000000266e-01

-8.449999999999999734e-01

-9.150000000000000355e-01

-9.649999999999999689e-01

-9.499999999999999556e-01

-8.625000000000000444e-01

-7.249999999999999778e-01

-5.675000000000000044e-01

-3.300000000000000155e-01

-1.325000000000000067e-01

5.999999999999999778e-02

1.875000000000000000e-01

2.099999999999999922e-01

2.775000000000000244e-01

3.449999999999999734e-01

3.800000000000000044e-01

3.074999999999999956e-01

7.499999999999999722e-02

-2.399999999999999911e-01

-4.174999999999999822e-01

-4.199999999999999845e-01

-3.275000000000000133e-01

-1.950000000000000067e-01

-8.749999999999999445e-02

2.750000000000000014e-02

2.750000000000000014e-02

2.999999999999999889e-02

7.499999999999999722e-02

1.325000000000000067e-01

1.774999999999999911e-01

2.325000000000000122e-01

2.449999999999999956e-01

2.399999999999999911e-01

2.225000000000000033e-01

2.000000000000000111e-01

2.025000000000000133e-01

2.250000000000000056e-01

2.225000000000000033e-01

1.575000000000000011e-01

3.500000000000000333e-02

-4.499999999999999833e-02

-4.250000000000000305e-02

7.499999999999999722e-02

1.799999999999999933e-01

3.499999999999999778e-01

5.775000000000000133e-01

7.049999999999999600e-01

5.825000000000000178e-01

1.724999999999999867e-01

-1.849999999999999978e-01

-2.775000000000000244e-01

-2.025000000000000133e-01

-1.174999999999999933e-01

-6.500000000000000222e-02

-2.999999999999999889e-02

2.750000000000000014e-02

8.250000000000000389e-02

3.500000000000000333e-02

-1.100000000000000006e-01

-1.100000000000000006e-01

1.024999999999999939e-01

2.924999999999999822e-01

3.724999999999999978e-01

3.499999999999999778e-01

3.300000000000000155e-01

3.225000000000000089e-01

3.499999999999999778e-01

3.599999999999999867e-01

4.099999999999999756e-01

5.024999999999999467e-01

6.300000000000000044e-01

7.475000000000000533e-01

8.100000000000000533e-01

8.924999999999999600e-01

1.034999999999999920e+00

1.107499999999999929e+00

1.205000000000000071e+00

1.229999999999999982e+00

1.057500000000000107e+00

6.875000000000000000e-01

3.350000000000000200e-01

2.675000000000000155e-01

3.300000000000000155e-01

3.649999999999999911e-01

3.350000000000000200e-01

2.149999999999999967e-01

7.249999999999999500e-02

1.250000000000000069e-02

8.250000000000000389e-02

1.275000000000000022e-01

5.750000000000000250e-02

-8.000000000000000167e-02

-8.000000000000000167e-02

-6.500000000000000222e-02

-5.000000000000000278e-02

6.500000000000000222e-02

5.750000000000000250e-02

-7.499999999999999722e-02

-1.275000000000000022e-01

-8.000000000000000167e-02

-2.999999999999999889e-02

5.000000000000000278e-02

5.750000000000000250e-02

6.750000000000000444e-02

1.174999999999999933e-01

2.149999999999999967e-01

2.374999999999999889e-01

2.025000000000000133e-01

1.474999999999999922e-01

9.500000000000000111e-02

5.000000000000000104e-03

-4.250000000000000305e-02

1.499999999999999944e-02

2.074999999999999900e-01

5.224999999999999645e-01

6.724999999999999867e-01

7.850000000000000311e-01

7.874999999999999778e-01

6.225000000000000533e-01

4.874999999999999889e-01

5.775000000000000133e-01

7.574999999999999512e-01

1.054999999999999938e+00

1.395000000000000018e+00

1.635000000000000009e+00

1.745000000000000107e+00

1.812500000000000000e+00

1.864999999999999991e+00

1.834999999999999964e+00

1.889999999999999902e+00

2.067499999999999893e+00

2.247500000000000053e+00

2.225000000000000089e+00

1.762499999999999956e+00

1.139999999999999902e+00

5.250000000000000222e-01

-3.749999999999999861e-02

-3.449999999999999734e-01

-4.400000000000000022e-01

-4.475000000000000089e-01

-4.774999999999999800e-01

-4.799999999999999822e-01

-4.874999999999999889e-01

-3.724999999999999978e-01

-5.999999999999999778e-02

1.950000000000000067e-01

2.225000000000000033e-01

1.575000000000000011e-01

5.000000000000000278e-02

-1.799999999999999933e-01

-5.000000000000000000e-01

-7.774999999999999689e-01

-9.425000000000000044e-01

-8.625000000000000444e-01

-5.999999999999999778e-01

-5.024999999999999467e-01

-7.475000000000000533e-01

-8.750000000000000000e-01

-8.100000000000000533e-01

-6.524999999999999689e-01

-5.849999999999999645e-01

-6.149999999999999911e-01

